timestamp_ms,EMG_Quad_mV,EMG_Ham_mV,EMG_Calf_mV,ACC_Quad_X_g,ACC_Quad_Y_g,ACC_Quad_Z_g,GYR_Quad_X_dps,GYR_Quad_Y_dps,GYR_Quad_Z_dps,Pitch_Quad_deg,Roll_Quad_deg,ACC_Ham_X_g,ACC_Ham_Y_g,ACC_Ham_Z_g,GYR_Ham_X_dps,GYR_Ham_Y_dps,GYR_Ham_Z_dps,Pitch_Ham_deg,Roll_Ham_deg,ACC_Calf_X_g,ACC_Calf_Y_g,ACC_Calf_Z_g,GYR_Calf_X_dps,GYR_Calf_Y_dps,GYR_Calf_Z_dps,Pitch_Calf_deg,Roll_Calf_deg,Angle_Quad_Ham_deg,Angle_Quad_Calf_deg,Angle_Ham_Calf_deg
126661,1514.21,3300.00,1535.16,-0.0078,0.2107,1.1743,0.261,-3.123,1.079,0.19,8.80,0.0078,-0.6238,0.8330,7.646,-0.921,-5.942,0.20,-37.14,0.7894,-0.0775,0.6517,1.877,0.163,-2.702,-49.21,-0.87,0.00,-3.46,-3.46
126675,1496.48,3300.00,1526.30,0.0093,0.1704,1.1953,-14.441,-4.894,1.323,0.11,8.58,0.0205,-0.5857,0.8396,-1.728,-0.295,0.974,0.17,-37.12,0.7747,-0.0472,0.6698,2.060,3.613,-4.107,-49.15,-0.90,0.00,-6.66,-6.67
126690,1487.62,3300.00,1501.32,0.0273,0.1577,1.2102,-9.312,-1.397,0.468,0.06,8.42,-0.0103,-0.6199,0.7527,-12.476,2.102,6.348,0.21,-37.35,0.7178,0.0253,0.6351,-1.665,3.033,-6.641,-49.10,-0.86,0.01,-9.64,-9.65
126715,1473.92,3300.00,1497.29,0.0095,0.1719,1.1833,17.269,3.412,-1.669,0.13,8.84,0.0039,-0.5813,0.8193,13.326,-1.577,-3.148,0.16,-36.99,0.8099,0.0118,0.6512,1.724,4.957,-2.107,-49.02,-0.78,0.02,-12.40,-12.42
126730,1509.38,3300.00,1508.57,-0.0261,0.2039,1.1587,10.551,4.328,-1.883,0.22,9.01,0.0005,-0.5984,0.8447,-2.231,-0.585,0.761,0.15,-36.98,0.7445,0.0514,0.6509,1.281,5.124,-1.298,-48.94,-0.65,0.01,-14.98,-14.99
126754,1469.89,3300.00,1485.20,-0.0164,0.1826,1.1687,-9.220,-4.833,1.690,0.11,8.78,-0.0200,-0.6169,0.7664,-0.628,-0.432,0.242,0.16,-37.04,0.7595,-0.0093,0.7198,-3.848,3.002,4.702,-48.82,-0.75,0.01,-17.35,-17.37
126769,1440.07,3300.00,1469.08,0.0039,0.1663,1.1899,-11.831,-4.497,2.117,0.04,8.60,-0.0022,-0.5928,0.8108,6.028,0.224,-2.674,0.16,-36.93,0.7054,0.0190,0.6969,-0.230,-5.440,2.641,-48.83,-0.71,0.02,-19.56,-19.58
126794,1510.99,3300.00,1535.16,0.0012,0.1621,1.2124,3.131,3.229,-0.158,0.12,8.65,-0.0203,-0.6130,0.7827,-2.094,0.331,2.577,0.19,-37.01,0.7841,0.0042,0.6361,-5.955,-5.257,3.023,-49.00,-0.83,0.02,-21.63,-21.65
126808,1510.18,3300.00,1534.36,0.0073,0.1970,1.1846,13.085,1.961,-1.196,0.14,8.86,0.0034,-0.5994,0.8186,5.295,-1.073,-3.560,0.17,-36.91,0.7571,0.0365,0.5963,-0.215,-5.013,3.374,-49.12,-0.75,0.02,-23.56,-23.59
126833,1448.13,3300.00,1477.14,-0.0154,0.1956,1.1680,0.200,-0.420,-1.196,0.14,8.88,-0.0078,-0.6140,0.7893,-6.048,-0.020,3.539,0.17,-37.08,0.7649,-0.0455,0.6425,-2.261,4.972,6.672,-49.02,-0.87,0.02,-25.35,-25.38
126848,1476.34,3300.00,1501.32,-0.0061,0.1877,1.1750,-7.128,-4.573,1.842,0.08,8.78,-0.0056,-0.6135,0.7908,4.089,0.530,-2.110,0.18,-37.04,0.6946,-0.0317,0.6764,1.541,0.804,1.588,-48.94,-0.88,0.03,-27.01,-27.04
126872,1482.78,3300.00,1481.17,0.0076,0.1680,1.2063,-4.899,-2.665,0.224,0.00,8.64,0.0071,-0.6035,0.8169,-3.880,0.285,1.173,0.18,-37.12,0.7357,-0.0405,0.6497,-1.635,-2.372,-3.664,-48.99,-0.97,0.04,-28.55,-28.59
126887,1436.85,3300.00,1452.97,0.0024,0.1699,1.2053,3.482,3.106,-0.463,0.05,8.68,-0.0132,-0.6233,0.7715,-5.086,0.194,1.341,0.19,-37.23,0.7526,0.0049,0.6068,1.327,-2.937,-6.901,-49.07,-0.93,0.05,-29.99,-30.04
126912,1519.85,3300.00,1531.94,-0.0132,0.1831,1.1699,4.933,4.282,-0.478,0.16,8.80,-0.0039,-0.5945,0.8240,4.578,-0.799,-1.423,0.17,-37.09,0.7876,0.0120,0.6104,1.968,7.689,-1.282,-48.95,-0.84,0.04,-31.33,-31.37
126926,1519.05,3300.00,1528.72,-0.0190,0.1843,1.1636,0.230,-0.191,-0.524,0.17,8.81,-0.0090,-0.6094,0.8032,-4.002,0.728,1.402,0.19,-37.15,0.7380,0.0206,0.6554,3.633,7.888,-1.420,-48.82,-0.73,0.04,-32.56,-32.61
126951,1438.46,3300.00,1452.16,0.0039,0.1719,1.1970,-9.144,-3.413,1.094,0.08,8.58,-0.0066,-0.6121,0.7957,3.387,-0.066,-1.667,0.19,-37.07,0.7363,-0.0280,0.7253,-0.505,2.361,-1.038,-48.70,-0.77,0.05,-33.70,-33.75
126966,1460.22,3300.00,1490.84,0.0073,0.1699,1.2053,-3.754,-2.542,0.423,0.04,8.51,0.0056,-0.6086,0.8083,0.608,-0.402,-0.888,0.18,-37.06,0.7377,0.0071,0.6946,0.167,-4.631,-4.229,-48.73,-0.74,0.05,-34.75,-34.81
126990,1490.04,3300.00,1495.68,0.0024,0.1841,1.1831,8.276,3.122,-1.440,0.11,8.72,-0.0037,-0.6143,0.7878,1.631,-0.279,-0.995,0.17,-37.04,0.7850,0.0461,0.6255,-2.429,-1.166,-0.092,-48.81,-0.70,0.05,-35.75,-35.80
127005,1461.83,3300.00,1472.31,-0.0088,0.1936,1.1726,5.574,3.366,-0.509,0.17,8.81,0.0020,-0.5994,0.8235,1.555,0.102,-0.919,0.17,-37.00,0.7750,0.0503,0.6221,1.068,0.224,2.367,-48.85,-0.58,0.05,-36.68,-36.72
127030,1483.59,3300.00,1518.24,-0.0112,0.1929,1.1680,-5.312,-2.588,0.774,0.11,8.69,-0.0173,-0.6089,0.7939,-1.178,0.484,0.959,0.19,-37.04,0.7418,-0.0197,0.6979,-1.772,4.285,6.580,-48.70,-0.65,0.05,-37.52,-37.58
127044,1530.33,3300.00,1523.08,-0.0073,0.1709,1.2048,-7.434,-2.909,0.728,0.07,8.58,-0.0007,-0.6013,0.8027,4.089,-0.234,-1.178,0.19,-36.98,0.7142,-0.0262,0.7126,0.029,-2.799,2.046,-48.67,-0.67,0.06,-38.31,-38.37
127069,1440.07,3300.00,1442.49,-0.0020,0.1724,1.1973,2.688,1.748,-0.234,0.12,8.63,-0.0020,-0.6079,0.7922,-4.812,0.102,0.959,0.19,-37.10,0.7509,-0.0079,0.6417,-3.619,-7.410,0.504,-48.87,-0.76,0.06,-39.06,-39.11
127084,1436.85,3300.00,1465.86,-0.0061,0.1780,1.1838,5.895,3.106,-0.936,0.17,8.72,-0.0095,-0.6189,0.7830,-0.170,0.118,-0.155,0.20,-37.13,0.7719,0.0085,0.5955,-1.192,-6.417,-0.565,-49.03,-0.75,0.06,-39.77,-39.82
127108,1506.15,3300.00,1523.08,-0.0066,0.1860,1.1658,-1.067,-0.726,0.010,0.15,8.70,0.0010,-0.6072,0.8176,0.608,0.240,-0.400,0.20,-37.10,0.7659,-0.0034,0.6093,0.060,5.460,3.771,-48.95,-0.74,0.05,-40.42,-40.47
127123,1488.42,3300.00,1493.26,-0.0037,0.1775,1.1877,-6.365,-2.955,0.575,0.11,8.60,-0.0042,-0.6138,0.7932,-2.812,0.072,1.539,0.20,-37.16,0.7397,-0.0292,0.6508,2.762,5.109,1.069,-48.87,-0.74,0.06,-41.02,-41.08
127147,1472.31,3300.00,1501.32,0.0076,0.1741,1.2043,-0.976,-0.833,0.361,0.08,8.57,0.0017,-0.6077,0.8181,1.845,-0.050,-0.980,0.19,-37.10,0.7302,-0.0463,0.6879,-0.032,0.972,-3.130,-48.80,-0.80,0.06,-41.57,-41.63
127162,1525.49,3300.00,1519.85,-0.0015,0.1738,1.1924,3.772,2.740,-0.814,0.12,8.62,-0.0061,-0.6099,0.8013,-0.980,0.163,1.127,0.20,-37.12,0.7471,-0.0134,0.6501,1.022,-2.830,-6.763,-48.84,-0.79,0.06,-42.09,-42.15
127187,1434.43,3300.00,1462.64,-0.0093,0.1902,1.1729,4.001,1.656,-0.524,0.17,8.73,-0.0027,-0.5984,0.8032,2.288,0.102,-1.102,0.20,-37.05,0.7756,0.0360,0.6166,0.014,3.537,-3.038,-48.81,-0.71,0.06,-42.57,-42.63
127201,1433.63,3300.00,1465.05,-0.0117,0.1860,1.1716,-2.518,-0.726,0.148,0.16,8.70,-0.0027,-0.6016,0.8098,-1.819,0.087,0.852,0.20,-37.07,0.7737,0.0269,0.6371,2.869,4.728,-0.809,-48.78,-0.61,0.06,-43.01,-43.07
127226,1531.94,3300.00,1535.97,0.0007,0.1765,1.1941,-4.640,-2.680,0.682,0.09,8.58,-0.0034,-0.6123,0.7910,1.814,-0.142,-0.766,0.20,-37.04,0.7396,-0.0115,0.7047,-0.001,4.392,1.389,-48.62,-0.61,0.06,-43.41,-43.48
127241,1493.26,3300.00,1499.71,0.0039,0.1770,1.2002,-0.823,-0.207,-0.005,0.09,8.56,-0.0002,-0.6057,0.8157,2.746,-0.127,-0.720,0.19,-36.99,0.7373,-0.0125,0.7133,0.335,-2.387,-1.572,-48.60,-0.61,0.06,-43.78,-43.85
127265,1452.16,3300.00,1486.81,-0.0032,0.1880,1.1804,5.040,2.511,-0.570,0.15,8.70,-0.0120,-0.6135,0.7893,-2.873,0.240,0.806,0.21,-37.08,0.7660,0.0258,0.6448,-2.429,-5.440,0.046,-48.76,-0.62,0.06,-44.14,-44.21
127280,1503.74,3300.00,1507.77,-0.0063,0.1868,1.1765,2.292,1.198,-0.661,0.17,8.74,-0.0046,-0.6069,0.7979,2.074,-0.264,-0.659,0.20,-37.05,0.7821,0.0293,0.6206,-1.009,-3.807,1.389,-48.87,-0.56,0.06,-44.48,-44.55
127304,1457.00,3300.00,1465.86,-0.0007,0.1841,1.1873,-4.289,-2.436,0.545,0.11,8.63,-0.0005,-0.6064,0.8022,-1.514,0.209,0.974,0.21,-37.09,0.7579,-0.0002,0.6448,-0.902,2.758,6.092,-48.82,-0.57,0.07,-44.80,-44.86
127319,1440.07,3300.00,1457.80,0.0039,0.1758,1.1941,-3.800,-1.733,0.377,0.08,8.57,-0.0093,-0.6123,0.7959,-0.674,0.056,0.043,0.21,-37.11,0.7421,-0.0364,0.6798,0.152,0.315,3.878,-48.79,-0.62,0.07,-45.08,-45.15
127344,1525.49,3300.00,1526.30,-0.0054,0.1790,1.1887,4.047,2.038,-0.493,0.13,8.67,-0.0034,-0.6067,0.8054,-0.140,0.285,0.165,0.22,-37.11,0.7327,-0.0308,0.6692,-1.955,-4.143,-0.107,-48.86,-0.71,0.07,-45.35,-45.42
127358,1504.54,3300.00,1526.30,-0.0081,0.1829,1.1790,3.895,2.374,-0.509,0.17,8.73,-0.0105,-0.6123,0.7986,-0.751,0.087,0.776,0.23,-37.13,0.7626,-0.0156,0.6245,-0.383,-5.074,-2.641,-48.97,-0.73,0.07,-45.62,-45.69
127383,1441.69,3300.00,1476.34,-0.0083,0.1887,1.1802,-2.258,-1.107,0.529,0.15,8.68,0.0027,-0.6042,0.8103,1.158,-0.081,-0.415,0.22,-37.09,0.7631,0.0094,0.6068,0.579,3.506,-0.412,-48.94,-0.68,0.07,-45.86,-45.93
127398,1482.78,3300.00,1493.26,0.0005,0.1821,1.1868,-4.365,-2.084,0.316,0.11,8.62,-0.0044,-0.6118,0.7993,-2.689,0.362,1.020,0.22,-37.14,0.7609,-0.0122,0.6373,2.503,5.308,-0.183,-48.88,-0.66,0.07,-46.08,-46.15
127423,1482.78,3300.00,1494.07,0.0015,0.1807,1.1926,0.597,0.206,0.071,0.11,8.64,-0.0010,-0.6079,0.7988,2.669,-0.417,-0.949,0.21,-37.08,0.7324,-0.0310,0.6914,1.083,3.750,-2.519,-48.75,-0.67,0.08,-46.28,-46.35
127437,1460.22,3300.00,1454.58,-0.0022,0.1829,1.1899,3.314,1.839,-0.677,0.14,8.69,0.0017,-0.5991,0.8174,0.685,-0.020,-0.216,0.20,-37.05,0.7500,-0.0220,0.6877,1.419,-0.814,-5.481,-48.73,-0.67,0.07,-46.46,-46.53
127462,1514.21,3300.00,1527.11,-0.0049,0.1897,1.1714,0.887,0.175,-0.219,0.15,8.72,-0.0022,-0.6162,0.7935,-0.949,0.072,0.394,0.20,-37.09,0.7737,0.0330,0.6342,0.060,-0.799,-3.359,-48.79,-0.60,0.07,-46.63,-46.70
127476,1513.41,3300.00,1535.97,-0.0063,0.1846,1.1772,-2.808,-1.275,0.270,0.13,8.68,-0.0017,-0.6072,0.8018,2.394,-0.188,-1.087,0.20,-37.05,0.7876,0.0289,0.6367,1.052,1.598,-0.855,-48.81,-0.52,0.07,-46.79,-46.87
127501,1442.49,3300.00,1453.77,0.0010,0.1755,1.1953,-1.815,-1.092,0.407,0.10,8.63,-0.0073,-0.6125,0.7930,-1.514,0.148,1.020,0.21,-37.10,0.7518,0.0065,0.6851,0.335,3.292,3.221,-48.71,-0.49,0.08,-46.93,-47.01
127516,1445.71,3300.00,1469.89,-0.0020,0.1790,1.1970,1.208,0.954,-0.326,0.11,8.65,-0.0061,-0.6121,0.7944,0.837,-0.081,-0.705,0.21,-37.10,0.7461,-0.0198,0.7029,-0.276,-0.448,2.137,-48.67,-0.51,0.08,-47.06,-47.14
127541,1510.99,3300.00,1507.77,-0.0024,0.1870,1.1787,3.024,1.549,-0.264,0.15,8.73,0.0002,-0.6067,0.8025,-1.224,0.255,0.745,0.21,-37.13,0.7488,-0.0034,0.6704,-2.322,-5.822,0.840,-48.81,-0.57,0.08,-47.20,-47.27
127555,1457.80,3300.00,1482.78,-0.0073,0.1873,1.1804,-0.441,-0.130,-0.112,0.15,8.73,-0.0083,-0.6116,0.7932,0.318,0.041,-0.064,0.22,-37.14,0.7773,0.0033,0.6295,-1.406,-5.532,1.084,-48.93,-0.57,0.07,-47.33,-47.40
127580,1487.62,3300.00,1516.63,-0.0012,0.1807,1.1809,-3.052,-1.825,0.529,0.11,8.65,0.0002,-0.6033,0.8137,-0.277,-0.142,-0.125,0.21,-37.13,0.7596,-0.0006,0.6249,-0.490,0.941,3.802,-48.94,-0.57,0.08,-47.45,-47.52
127594,1534.36,3300.00,1531.14,0.0005,0.1790,1.1919,-1.312,-0.588,0.056,0.10,8.63,0.0005,-0.6089,0.8022,-2.079,0.209,0.852,0.21,-37.16,0.7516,-0.0350,0.6511,0.426,2.163,3.176,-48.91,-0.62,0.08,-47.56,-47.64
127619,1452.97,3300.00,1451.36,-0.0029,0.1851,1.1821,2.948,1.641,-0.463,0.14,8.71,-0.0020,-0.6101,0.8083,2.104,-0.218,-0.751,0.20,-37.11,0.7336,-0.0397,0.6737,-0.062,-0.463,-1.588,-48.89,-0.67,0.08,-47.66,-47.74
127634,1457.00,3300.00,1454.58,-0.0049,0.1853,1.1816,1.910,1.076,-0.356,0.15,8.74,-0.0020,-0.6040,0.8076,-0.552,0.072,0.226,0.20,-37.11,0.7574,-0.0337,0.6538,0.396,-2.311,-4.092,-48.93,-0.71,0.08,-47.76,-47.84
127659,1529.52,3300.00,1508.57,-0.0032,0.1794,1.1904,-2.502,-1.275,0.239,0.12,8.67,-0.0063,-0.6106,0.7971,0.303,-0.050,-0.247,0.20,-37.11,0.7712,0.0101,0.6147,1.144,1.384,-3.328,-48.95,-0.65,0.08,-47.85,-47.93
127673,1475.53,3300.00,1508.57,-0.0034,0.1785,1.1960,-2.701,-1.458,0.209,0.10,8.63,-0.0012,-0.6028,0.8005,1.234,-0.127,-0.430,0.20,-37.09,0.7765,0.0022,0.6290,2.091,4.880,-1.878,-48.92,-0.60,0.08,-47.93,-48.01
127698,1471.50,3300.00,1498.10,-0.0042,0.1809,1.1902,1.757,0.877,-0.249,0.13,8.67,-0.0022,-0.6094,0.7974,-0.689,0.118,0.318,0.20,-37.11,0.7391,-0.0094,0.6913,1.633,4.514,-0.885,-48.77,-0.57,0.08,-48.00,-48.08
127712,1506.15,3300.00,1532.75,-0.0042,0.1821,1.1853,2.917,1.396,-0.264,0.15,8.72,-0.0015,-0.6060,0.8091,0.593,-0.142,-0.507,0.19,-37.10,0.7529,-0.0198,0.7020,0.701,0.315,-2.198,-48.73,-0.58,0.07,-48.06,-48.14
127737,1440.07,3300.00,1457.00,-0.0049,0.1895,1.1814,-0.792,-0.634,0.163,0.13,8.71,0.0012,-0.6077,0.7991,-0.934,0.133,0.303,0.19,-37.12,0.7670,0.0160,0.6566,-0.658,-3.471,-2.000,-48.83,-0.56,0.07,-48.12,-48.20
127751,1435.24,3300.00,1444.10,-0.0005,0.1790,1.1848,-2.808,-1.596,0.300,0.11,8.66,-0.0051,-0.6106,0.8018,0.807,-0.157,-0.003,0.19,-37.12,0.7831,0.0237,0.6437,-0.337,-2.021,-0.137,-48.89,-0.51,0.07,-48.19,-48.26
127776,1513.41,3300.00,1525.49,0.0005,0.1785,1.1909,-0.441,-0.237,0.102,0.10,8.65,0.0010,-0.6084,0.8013,-0.781,0.056,0.165,0.19,-37.14,0.7629,0.0107,0.6566,-0.230,1.812,3.679,-48.85,-0.48,0.07,-48.24,-48.31
127791,1504.54,3300.00,1486.81,-0.0024,0.1816,1.1917,2.230,1.213,-0.295,0.12,8.68,-0.0076,-0.6113,0.8000,-1.041,0.026,0.516,0.19,-37.16,0.7538,-0.0231,0.6827,-0.200,0.437,3.893,-48.83,-0.52,0.07,-48.29,-48.36
127816,1461.83,3300.00,1494.07,-0.0073,0.1851,1.1809,1.345,0.480,-0.264,0.14,8.72,0.0005,-0.6050,0.7996,0.898,-0.096,-0.445,0.19,-37.13,0.7435,-0.0221,0.6727,-1.558,-4.036,0.718,-48.90,-0.58,0.07,-48.34,-48.41
127830,1472.31,3300.00,1508.57,-0.0066,0.1860,1.1807,-1.357,-0.726,0.239,0.13,8.70,-0.0059,-0.6050,0.8042,-1.025,-0.035,0.409,0.19,-37.15,0.7638,-0.0175,0.6440,-1.192,-4.891,-0.443,-48.99,-0.62,0.07,-48.40,-48.47
127855,1470.70,3300.00,1473.92,0.0005,0.1790,1.1882,-2.197,-1.352,0.239,0.09,8.65,-0.0044,-0.6089,0.8000,0.593,-0.066,-0.339,0.19,-37.13,0.7684,-0.0017,0.6173,0.121,0.392,0.825,-49.03,-0.60,0.07,-48.45,-48.52
127869,1428.79,3300.00,1445.71,-0.0007,0.1736,1.1956,-0.166,-0.191,-0.066,0.09,8.64,-0.0032,-0.6099,0.8064,-0.002,-0.111,-0.049,0.19,-37.13,0.7657,-0.0192,0.6334,1.007,3.109,0.947,-49.01,-0.61,0.08,-48.49,-48.57
127894,1521.47,3300.00,1535.97,-0.0034,0.1821,1.1858,2.337,1.213,-0.280,0.12,8.70,-0.0039,-0.6121,0.8047,0.211,-0.005,-0.079,0.19,-37.13,0.7407,-0.0344,0.6729,1.266,2.651,-1.496,-48.92,-0.63,0.07,-48.53,-48.61
127909,1516.63,3300.00,1523.88,-0.0051,0.1838,1.1760,0.750,0.465,-0.173,0.13,8.71,-0.0044,-0.6082,0.8015,0.104,0.011,-0.201,0.19,-37.13,0.7489,-0.0312,0.6731,0.915,0.254,-3.801,-48.90,-0.66,0.07,-48.57,-48.64
127934,1444.10,3300.00,1458.61,-0.0081,0.1809,1.1877,-2.105,-1.168,0.300,0.11,8.66,-0.0083,-0.6108,0.8025,-0.033,-0.020,0.257,0.19,-37.13,0.7705,0.0096,0.6371,0.839,-0.066,-3.969,-48.93,-0.61,0.07,-48.60,-48.67
127948,1469.89,3300.00,1495.68,-0.0032,0.1794,1.1899,-1.357,-0.726,0.178,0.10,8.64,-0.0093,-0.6111,0.7998,1.020,-0.111,-0.293,0.20,-37.12,0.7810,0.0199,0.6376,1.220,2.132,-2.183,-48.94,-0.54,0.08,-48.63,-48.71
127973,1481.17,3300.00,1485.20,-0.0022,0.1772,1.1853,1.956,1.122,-0.035,0.12,8.68,-0.0027,-0.6118,0.7983,-0.919,0.072,0.242,0.20,-37.15,0.7585,0.0059,0.6777,0.991,3.674,0.886,-48.83,-0.50,0.08,-48.65,-48.73
127987,1448.94,3300.00,1475.53,-0.0059,0.1841,1.1768,1.788,0.908,-0.188,0.14,8.71,-0.0034,-0.6089,0.7993,0.150,-0.035,-0.216,0.20,-37.15,0.7521,-0.0154,0.6984,0.320,0.880,0.855,-48.79,-0.51,0.08,-48.67,-48.75
128012,1509.38,3300.00,1542.42,-0.0046,0.1855,1.1833,-1.770,-0.802,0.209,0.12,8.67,-0.0046,-0.6074,0.8015,0.120,-0.020,0.058,0.20,-37.15,0.7563,-0.0022,0.6716,-1.192,-3.761,-0.382,-48.87,-0.53,0.08,-48.69,-48.77
128027,1523.88,3300.00,1550.48,-0.0020,0.1802,1.1858,-2.380,-1.229,0.087,0.10,8.64,-0.0015,-0.6133,0.7917,-0.445,0.011,0.180,0.20,-37.17,0.7750,0.0061,0.6479,-1.253,-3.730,0.229,-48.95,-0.53,0.08,-48.72,-48.80
128052,1432.01,3300.00,1461.83,-0.0024,0.1799,1.1958,1.040,0.587,-0.142,0.12,8.66,-0.0022,-0.6064,0.8086,0.165,0.011,0.119,0.20,-37.16,0.7682,0.0070,0.6342,-0.459,0.178,3.054,-48.97,-0.51,0.08,-48.74,-48.82
128066,1448.13,3300.00,1469.89,-0.0039,0.1824,1.1926,2.383,1.381,-0.432,0.14,8.70,-0.0032,-0.6104,0.7983,-0.201,0.118,0.211,0.20,-37.17,0.7588,-0.0162,0.6536,-0.383,1.201,3.435,-48.96,-0.54,0.08,-48.77,-48.85
128091,1495.68,3300.00,1508.57,-0.0051,0.1860,1.1746,0.047,-0.115,-0.020,0.14,8.70,-0.0005,-0.6047,0.8083,0.333,0.011,-0.140,0.19,-37.15,0.7410,-0.0320,0.6752,-0.429,-1.379,0.901,-48.97,-0.59,0.07,-48.79,-48.87
128105,1457.00,3300.00,1475.53,-0.0056,0.1804,1.1829,-1.876,-0.985,0.194,0.13,8.68,-0.0037,-0.6057,0.8015,-0.491,-0.005,0.211,0.20,-37.16,0.7520,-0.0273,0.6558,-0.841,-2.814,-0.855,-49.01,-0.64,0.07,-48.82,-48.89
128130,1495.68,3300.00,1522.27,-0.0024,0.1750,1.1921,-1.144,-0.680,0.178,0.11,8.64,-0.0012,-0.6111,0.7998,0.654,-0.020,-0.171,0.19,-37.15,0.7689,-0.0057,0.6191,0.182,-0.601,-1.389,-49.07,-0.63,0.07,-48.84,-48.92
128145,1521.47,3300.00,1526.30,0.0020,0.1755,1.1938,0.750,0.526,0.056,0.11,8.65,-0.0039,-0.6084,0.8088,0.364,0.087,-0.033,0.19,-37.14,0.7712,-0.0079,0.6233,0.946,2.483,-0.763,-49.07,-0.62,0.07,-48.87,-48.94
128169,1420.73,3300.00,1462.64,-0.0029,0.1853,1.1873,1.543,0.908,-0.158,0.14,8.69,-0.0020,-0.6150,0.8003,-0.369,0.072,0.119,0.19,-37.15,0.7526,-0.0182,0.6652,1.587,3.842,-1.237,-48.97,-0.60,0.07,-48.88,-48.96
128184,1449.74,3300.00,1455.38,-0.0090,0.1846,1.1802,-0.304,-0.023,0.041,0.14,8.69,-0.0020,-0.6116,0.8018,0.761,0.011,-0.140,0.19,-37.15,0.7482,-0.0233,0.6815,1.236,2.315,-2.336,-48.91,-0.61,0.07,-48.89,-48.97
128209,1520.66,3300.00,1547.25,-0.0034,0.1794,1.1880,-1.342,-0.710,0.010,0.13,8.65,-0.0076,-0.6072,0.8010,-0.476,0.118,0.348,0.20,-37.16,0.7633,0.0034,0.6664,0.381,-0.616,-3.420,-48.92,-0.58,0.07,-48.90,-48.98
128223,1498.90,3300.00,1508.57,-0.0029,0.1777,1.1938,-0.060,0.068,-0.051,0.13,8.65,-0.0039,-0.6023,0.7986,0.196,-0.127,-0.140,0.20,-37.15,0.7756,0.0156,0.6526,0.304,-0.311,-1.832,-48.94,-0.54,0.07,-48.92,-48.99
128248,1477.95,3300.00,1502.93,-0.0063,0.1848,1.1882,1.330,0.572,-0.371,0.14,8.69,-0.0024,-0.6069,0.8132,-0.354,-0.066,0.058,0.20,-37.15,0.7675,0.0106,0.6625,0.213,1.476,1.725,-48.91,-0.51,0.07,-48.93,-49.00
128262,1506.96,3300.00,1520.66,-0.0034,0.1819,1.1858,0.108,0.114,0.026,0.15,8.69,-0.0046,-0.6101,0.7910,-0.369,0.056,0.180,0.20,-37.17,0.7568,-0.0026,0.6826,-0.230,0.926,2.443,-48.88,-0.50,0.07,-48.93,-49.00
128287,1447.33,3300.00,1458.61,-0.0002,0.1814,1.1865,-1.510,-0.939,0.194,0.12,8.65,0.0037,-0.6067,0.8015,0.425,-0.188,-0.186,0.19,-37.16,0.7543,-0.0156,0.6783,-1.024,-3.120,1.176,-48.94,-0.54,0.07,-48.94,-49.01
128301,1432.01,3300.00,1454.58,0.0015,0.1797,1.1882,-1.006,-0.573,0.041,0.11,8.64,0.0015,-0.6079,0.8010,-0.644,0.102,0.409,0.18,-37.17,0.7621,-0.0098,0.6544,-1.543,-3.761,0.687,-49.00,-0.57,0.07,-48.95,-49.02
128326,1529.52,3300.00,1547.25,-0.0027,0.1814,1.1899,1.437,0.938,-0.097,0.13,8.67,-0.0027,-0.6089,0.8064,0.715,-0.035,-0.140,0.18,-37.15,0.7690,-0.0033,0.6302,-0.535,-1.089,1.389,-49.06,-0.58,0.07,-48.97,-49.04
128341,1484.40,3300.00,1514.21,-0.0044,0.1826,1.1829,1.513,0.908,-0.264,0.15,8.70,-0.0012,-0.6077,0.8049,0.257,0.026,-0.049,0.18,-37.14,0.7643,-0.0117,0.6323,-0.062,1.094,2.031,-49.07,-0.59,0.07,-48.99,-49.05
128365,1475.53,3300.00,1477.14,-0.0073,0.1819,1.1770,-0.899,-0.451,0.132,0.14,8.68,-0.0005,-0.6072,0.8054,-0.293,-0.035,0.135,0.17,-37.15,0.7474,-0.0319,0.6677,0.304,0.895,0.428,-49.03,-0.63,0.06,-49.00,-49.06
128380,1504.54,3300.00,1519.05,-0.0056,0.1824,1.1919,-1.434,-0.863,0.316,0.13,8.66,-0.0032,-0.6091,0.8027,0.562,-0.142,-0.278,0.17,-37.14,0.7506,-0.0286,0.6625,0.091,-0.387,-1.252,-49.03,-0.66,0.06,-49.01,-49.07
128405,1458.61,3300.00,1464.25,0.0015,0.1794,1.1865,0.032,-0.054,-0.173,0.12,8.66,-0.0010,-0.6094,0.7993,-0.354,0.087,-0.003,0.17,-37.15,0.7638,-0.0072,0.6473,0.549,-0.479,-2.962,-49.05,-0.65,0.06,-49.02,-49.08
128419,1444.91,3300.00,1443.30,-0.0020,0.1792,1.1895,1.253,0.542,-0.173,0.13,8.67,-0.0039,-0.6096,0.8091,-0.094,-0.096,-0.094,0.17,-37.15,0.7700,0.0012,0.6329,0.854,1.552,-2.153,-49.06,-0.62,0.06,-49.04,-49.10
128444,1542.42,3300.00,1539.19,-0.0081,0.1797,1.1758,0.307,0.175,0.087,0.14,8.68,-0.0012,-0.6077,0.8064,-0.002,0.026,0.165,0.17,-37.15,0.7612,-0.0023,0.6575,1.556,3.842,-0.977,-48.97,-0.57,0.06,-49.04,-49.10
128458,1523.08,3300.00,1532.75,-0.0056,0.1792,1.1780,-0.731,-0.420,0.132,0.14,8.67,-0.0034,-0.6089,0.7986,0.028,0.056,0.180,0.17,-37.15,0.7550,-0.0111,0.6796,1.022,2.957,-1.099,-48.91,-0.57,0.06,-49.04,-49.10
128483,1455.38,3300.00,1474.73,-0.0017,0.1770,1.1838,-0.487,-0.252,0.041,0.13,8.65,-0.0056,-0.6094,0.8020,-0.002,0.026,-0.003,0.18,-37.15,0.7576,-0.0026,0.6825,-0.047,-1.074,-1.695,-48.92,-0.56,0.06,-49.04,-49.10
128498,1481.17,3300.00,1503.74,-0.0007,0.1843,1.1853,0.459,0.190,0.010,0.13,8.66,-0.0024,-0.6106,0.7998,-0.460,0.118,0.226,0.18,-37.16,0.7660,0.0105,0.6562,-0.566,-2.158,-0.977,-48.96,-0.54,0.05,-49.05,-49.10
128523,1477.14,3300.00,1488.42,-0.0042,0.1855,1.1768,0.551,0.374,-0.066,0.14,8.68,-0.0054,-0.6096,0.8015,0.608,-0.066,-0.140,0.18,-37.15,0.7692,0.0092,0.6506,-0.429,-0.417,1.832,-48.99,-0.52,0.05,-49.05,-49.10
128537,1452.16,3300.00,1461.83,-0.0054,0.1821,1.1824,-0.136,-0.161,-0.066,0.14,8.68,-0.0034,-0.6084,0.8020,-0.155,-0.005,0.043,0.18,-37.15,0.7615,-0.0005,0.6580,-0.429,0.468,2.992,-48.98,-0.52,0.05,-49.06,-49.11
128562,1517.44,3300.00,1524.69,-0.0046,0.1785,1.1848,-1.037,-0.634,0.209,0.13,8.65,-0.0049,-0.6099,0.8032,0.165,0.087,-0.155,0.18,-37.15,0.7534,-0.0229,0.6719,-0.810,-1.227,1.985,-49.00,-0.57,0.05,-49.06,-49.11
128577,1532.75,3300.00,1534.36,-0.0046,0.1797,1.1851,-0.243,-0.084,-0.005,0.13,8.65,0.0002,-0.6094,0.8062,0.196,-0.157,-0.033,0.18,-37.15,0.7512,-0.0232,0.6614,-1.146,-2.753,0.718,-49.03,-0.61,0.05,-49.07,-49.12
128601,1433.63,3300.00,1457.00,-0.0054,0.1816,1.1848,1.070,0.480,-0.066,0.14,8.68,-0.0020,-0.6074,0.8018,-0.002,-0.050,0.074,0.17,-37.15,0.7662,-0.0070,0.6361,-0.490,-1.547,-0.183,-49.09,-0.63,0.05,-49.08,-49.13
128616,1457.00,3300.00,1477.14,-0.0044,0.1799,1.1875,0.597,0.236,-0.066,0.15,8.69,-0.0002,-0.6069,0.8037,0.165,-0.005,-0.033,0.17,-37.14,0.7659,-0.0079,0.6298,0.197,0.880,0.260,-49.11,-0.62,0.05,-49.09,-49.14
128641,1486.81,3300.00,1498.10,-0.0056,0.1831,1.1794,-1.083,-0.665,0.071,0.13,8.66,-0.0076,-0.6111,0.8032,-0.308,0.133,0.119,0.18,-37.15,0.7517,-0.0223,0.6591,1.037,2.819,-0.412,-49.03,-0.63,0.05,-49.10,-49.15
128655,1461.03,3300.00,1481.98,-0.0032,0.1819,1.1914,-0.792,-0.497,0.010,0.13,8.65,-0.0056,-0.6067,0.7988,0.211,-0.035,-0.140,0.18,-37.15,0.7469,-0.0232,0.6692,0.869,2.102,-1.633,-48.99,-0.64,0.05,-49.10,-49.15
128680,1488.42,3300.00,1530.33,-0.0007,0.1809,1.1851,0.917,0.435,-0.158,0.14,8.67,0.0015,-0.6106,0.7998,-0.354,-0.066,0.211,0.17,-37.16,0.7605,-0.0095,0.6637,0.503,-0.021,-3.023,-48.98,-0.63,0.05,-49.10,-49.15
128694,1521.47,3300.00,1532.75,-0.0020,0.1877,1.1760,0.994,0.542,-0.295,0.14,8.70,-0.0044,-0.6055,0.7961,-0.216,0.072,0.119,0.18,-37.17,0.7650,0.0118,0.6500,0.503,0.270,-2.672,-48.99,-0.59,0.05,-49.10,-49.15
128719,1450.55,3300.00,1467.47,-0.0054,0.1826,1.1860,-0.304,-0.176,0.041,0.14,8.69,-0.0022,-0.6047,0.8000,0.410,-0.066,-0.110,0.17,-37.16,0.7673,0.0101,0.6573,0.808,2.254,-0.183,-48.95,-0.54,0.05,-49.10,-49.15
128734,1422.34,3300.00,1477.95,-0.0081,0.1809,1.1868,-1.083,-0.726,0.270,0.13,8.67,-0.0034,-0.6069,0.8064,-0.247,-0.066,0.074,0.17,-37.16,0.7596,0.0009,0.6746,0.625,2.117,0.641,-48.91,-0.52,0.05,-49.10,-49.14
128758,1515.82,3300.00,1517.44,-0.0002,0.1785,1.1868,-0.487,-0.329,0.041,0.12,8.66,-0.0037,-0.6096,0.7952,-0.277,-0.005,0.119,0.17,-37.17,0.7560,-0.0093,0.6827,-0.581,-1.456,0.321,-48.92,-0.54,0.05,-49.09,-49.14
128773,1478.75,3300.00,1481.17,-0.0042,0.1790,1.1885,0.459,0.267,-0.127,0.13,8.66,-0.0068,-0.6108,0.7986,0.211,-0.005,-0.064,0.18,-37.17,0.7622,-0.0029,0.6661,-1.070,-3.074,0.046,-48.96,-0.55,0.05,-49.09,-49.14
128798,1472.31,3300.00,1504.54,-0.0007,0.1838,1.1824,0.582,0.175,-0.020,0.13,8.68,-0.0042,-0.6064,0.8035,-0.033,-0.035,0.135,0.18,-37.17,0.7722,0.0079,0.6387,-0.795,-1.608,1.359,-49.03,-0.54,0.05,-49.10,-49.14
128812,1508.57,3300.00,1535.16,-0.0063,0.1777,1.1809,0.093,0.053,-0.051,0.14,8.68,-0.0032,-0.6072,0.7959,-0.048,-0.035,0.165,0.18,-37.17,0.7633,-0.0020,0.6396,-0.367,0.285,2.473,-49.05,-0.54,0.05,-49.10,-49.15
128837,1444.91,3300.00,1457.80,-0.0049,0.1863,1.1858,-0.533,-0.375,0.255,0.13,8.67,-0.0066,-0.6072,0.8042,0.379,-0.081,-0.232,0.18,-37.16,0.7499,-0.0267,0.6652,-0.093,0.422,1.985,-49.02,-0.58,0.05,-49.11,-49.15
128852,1430.40,3300.00,1457.00,-0.0034,0.1826,1.1877,-0.487,-0.359,0.026,0.12,8.67,-0.0029,-0.6082,0.8079,0.135,0.041,-0.033,0.18,-37.16,0.7482,-0.0298,0.6610,-0.367,-0.967,0.229,-49.03,-0.62,0.05,-49.11,-49.16
128877,1534.36,3300.00,1534.36,-0.0032,0.1836,1.1912,0.169,0.129,-0.035,0.13,8.67,0.0027,-0.6091,0.8054,-0.323,-0.020,0.028,0.17,-37.16,0.7610,-0.0164,0.6383,-0.062,-1.456,-1.969,-49.08,-0.64,0.05,-49.12,-49.16
128891,1502.12,3300.00,1523.08,-0.0005,0.1768,1.1873,0.200,0.206,-0.035,0.13,8.67,-0.0022,-0.6113,0.8027,-0.155,0.072,0.074,0.17,-37.17,0.7698,-0.0048,0.6320,0.365,0.453,-1.847,-49.11,-0.63,0.05,-49.13,-49.17
128916,1449.74,3300.00,1488.42,-0.0049,0.1812,1.1851,0.001,-0.008,0.026,0.13,8.67,-0.0056,-0.6099,0.8027,0.150,0.072,-0.033,0.18,-37.16,0.7649,-0.0063,0.6456,1.297,3.445,-0.931,-49.04,-0.60,0.05,-49.13,-49.18
128930,1492.45,3300.00,1520.66,-0.0032,0.1824,1.1899,-0.228,-0.237,0.071,0.13,8.67,0.0005,-0.6067,0.8005,0.196,-0.066,0.043,0.17,-37.16,0.7548,-0.0133,0.6672,1.297,3.094,-1.175,-48.98,-0.59,0.05,-49.13,-49.17
128955,1453.77,3300.00,1481.17,-0.0042,0.1790,1.1804,0.032,-0.039,-0.173,0.13,8.67,-0.0093,-0.6064,0.7964,-0.247,-0.050,0.135,0.18,-37.17,0.7565,-0.0082,0.6748,0.335,0.056,-2.092,-48.97,-0.59,0.05,-49.13,-49.17
128970,1430.40,3300.00,1459.41,-0.0044,0.1814,1.1790,0.429,0.038,0.117,0.13,8.68,-0.0027,-0.6133,0.8030,0.211,-0.020,-0.125,0.18,-37.17,0.7637,0.0038,0.6632,0.060,-1.074,-1.832,-48.98,-0.57,0.05,-49.12,-49.17
128994,1520.66,3300.00,1534.36,0.0005,0.1772,1.1804,-0.151,-0.100,0.087,0.13,8.67,-0.0015,-0.6077,0.8013,-0.033,-0.035,-0.018,0.18,-37.17,0.7694,0.0112,0.6473,-0.154,-0.143,0.489,-49.01,-0.54,0.05,-49.13,-49.17
129009,1509.38,3300.00,1520.66,0.0017,0.1804,1.1892,-0.411,-0.283,0.148,0.12,8.66,-0.0056,-0.6074,0.8005,-0.308,0.011,0.104,0.18,-37.18,0.7668,0.0042,0.6594,0.014,0.575,1.542,-49.00,-0.52,0.05,-49.13,-49.17
129034,1443.30,3300.00,1465.86,-0.0015,0.1809,1.1909,-0.365,-0.237,0.041,0.11,8.65,-0.0022,-0.6079,0.8042,0.425,-0.096,-0.155,0.17,-37.16,0.7535,-0.0167,0.6741,-0.352,-0.341,1.512,-49.00,-0.55,0.05,-49.12,-49.17
129048,1468.28,3300.00,1498.10,-0.0024,0.1804,1.1873,0.292,0.206,0.087,0.11,8.66,0.0000,-0.6091,0.8025,-0.293,0.056,0.058,0.17,-37.17,0.7529,-0.0133,0.6692,-0.825,-1.792,0.748,-49.01,-0.57,0.05,-49.12,-49.17
129073,1481.17,3300.00,1497.29,-0.0029,0.1814,1.1797,0.475,0.129,0.102,0.12,8.67,0.0002,-0.6084,0.7976,0.272,-0.096,-0.155,0.17,-37.17,0.7611,-0.0067,0.6432,-0.719,-2.051,0.244,-49.07,-0.59,0.05,-49.13,-49.18
129088,1451.36,3300.00,1470.70,-0.0022,0.1848,1.1794,-0.121,0.053,-0.035,0.12,8.67,-0.0042,-0.6062,0.8025,0.104,-0.127,0.074,0.17,-37.16,0.7646,-0.0037,0.6367,-0.215,-0.479,0.626,-49.10,-0.59,0.05,-49.13,-49.18
129112,1510.99,3300.00,1522.27,-0.0032,0.1790,1.1848,-0.395,-0.390,0.163,0.11,8.66,-0.0056,-0.6106,0.8018,-0.033,-0.066,-0.018,0.17,-37.17,0.7607,-0.0187,0.6534,0.396,1.659,0.825,-49.07,-0.60,0.05,-49.14,-49.19
129127,1528.72,3300.00,1534.36,-0.0059,0.1785,1.1863,-0.075,-0.054,-0.081,0.11,8.66,-0.0042,-0.6074,0.7988,-0.201,-0.081,0.104,0.17,-37.17,0.7491,-0.0247,0.6616,0.243,1.079,0.214,-49.04,-0.63,0.05,-49.14,-49.19
129152,1431.21,3300.00,1457.00,-0.0007,0.1812,1.1782,0.429,0.053,-0.005,0.11,8.67,-0.0054,-0.6108,0.7991,0.135,-0.111,-0.018,0.17,-37.17,0.7587,-0.0155,0.6554,0.152,-0.692,-2.030,-49.06,-0.64,0.05,-49.14,-49.19
129166,1446.52,3300.00,1469.89,-0.0015,0.1831,1.1819,-0.228,-0.222,0.041,0.11,8.67,-0.0059,-0.6089,0.7988,0.471,-0.127,-0.155,0.17,-37.17,0.7642,-0.0013,0.6425,0.549,-0.127,-2.473,-49.08,-0.62,0.05,-49.14,-49.20
129191,1489.23,3300.00,1498.10,-0.0044,0.1770,1.1902,-0.105,-0.115,0.041,0.11,8.66,0.0020,-0.6084,0.8032,-0.338,-0.050,0.074,0.16,-37.18,0.7676,0.0027,0.6515,0.900,2.499,-1.008,-49.03,-0.58,0.05,-49.14,-49.20
129206,1469.89,3300.00,1486.01,-0.0046,0.1807,1.1870,0.307,0.221,0.041,0.11,8.67,-0.0015,-0.6072,0.8062,0.242,0.026,-0.033,0.16,-37.17,0.7540,-0.0046,0.6630,0.854,2.941,-0.229,-48.98,-0.56,0.05,-49.14,-49.19
129230,1505.35,3300.00,1508.57,-0.0039,0.1831,1.1765,0.704,0.160,-0.112,0.12,8.69,-0.0042,-0.6074,0.8042,-0.262,-0.096,0.104,0.16,-37.17,0.7537,-0.0074,0.6855,0.381,0.315,-0.946,-48.95,-0.56,0.05,-49.14,-49.19
129245,1522.27,3300.00,1522.27,-0.0010,0.1794,1.1870,-0.533,-0.191,-0.005,0.11,8.68,-0.0029,-0.6128,0.8047,-0.155,0.011,-0.033,0.16,-37.18,0.7585,-0.0021,0.6741,-0.261,-1.334,-1.221,-48.96,-0.55,0.05,-49.13,-49.18
129270,1449.74,3300.00,1457.00,-0.0029,0.1755,1.1890,-0.808,-0.527,0.071,0.10,8.65,-0.0020,-0.6101,0.8076,0.028,-0.050,0.074,0.16,-37.17,0.7736,0.0083,0.6508,-0.612,-1.166,0.290,-49.00,-0.54,0.05,-49.13,-49.18
129284,1422.34,3300.00,1453.77,-0.0039,0.1802,1.1868,-0.121,0.022,-0.173,0.10,8.65,-0.0054,-0.6094,0.8000,-0.018,-0.035,0.165,0.16,-37.18,0.7667,0.0051,0.6469,-0.276,0.239,1.420,-49.02,-0.53,0.05,-49.13,-49.18
129309,1510.18,3300.00,1523.08,-0.0034,0.1772,1.1797,1.498,0.816,-0.173,0.12,8.69,-0.0088,-0.6104,0.7966,-0.048,-0.020,-0.064,0.17,-37.18,0.7585,-0.0104,0.6698,-0.261,0.178,2.153,-49.00,-0.54,0.05,-49.13,-49.18
129324,1492.45,3300.00,1498.90,-0.0039,0.1892,1.1833,0.963,0.084,0.300,0.13,8.71,-0.0039,-0.6177,0.8062,0.043,-0.035,-0.201,0.17,-37.19,0.7484,-0.0204,0.6742,-0.780,-1.669,1.786,-49.01,-0.57,0.05,-49.13,-49.18
129348,1475.53,3300.00,1483.59,0.0007,0.1838,1.1855,-1.541,-0.771,0.453,0.10,8.67,-0.0020,-0.6086,0.7964,-0.338,-0.020,0.257,0.17,-37.20,0.7524,-0.0092,0.6449,-1.314,-2.112,-0.030,-49.07,-0.61,0.05,-49.13,-49.18
129363,1514.21,3300.00,1510.99,-0.0054,0.1846,1.1909,-0.365,-0.481,0.102,0.10,8.67,-0.0039,-0.6128,0.7986,0.669,-0.157,-0.430,0.16,-37.20,0.7635,-0.0088,0.6349,0.518,-1.318,-0.779,-49.11,-0.61,0.05,-49.14,-49.19
129388,1452.97,3300.00,1483.59,-0.0049,0.1799,1.1885,0.994,0.526,-0.020,0.12,8.69,-0.0005,-0.6074,0.8035,-1.025,0.133,0.287,0.17,-37.22,0.7566,-0.0105,0.6481,0.335,2.804,0.473,-49.05,-0.61,0.05,-49.14,-49.19
129402,1446.52,3300.00,1467.47,-0.0037,0.1802,1.1851,1.192,0.633,-0.097,0.13,8.71,-0.0015,-0.6082,0.8052,-0.812,0.133,0.455,0.17,-37.23,0.7513,-0.0203,0.6625,1.129,2.315,-0.412,-49.01,-0.61,0.05,-49.14,-49.19
129427,1534.36,3300.00,1528.72,-0.0032,0.1777,1.1804,-0.731,-0.573,0.239,0.11,8.69,-0.0042,-0.6045,0.8088,0.211,-0.081,0.058,0.16,-37.21,0.7510,-0.0165,0.6681,0.274,0.453,-2.534,-48.98,-0.62,0.05,-49.14,-49.19
129442,1511.79,3300.00,1513.41,-0.0056,0.1792,1.1880,-1.281,-0.665,0.377,0.11,8.67,-0.0044,-0.6104,0.7974,-1.132,0.148,0.272,0.17,-37.23,0.7593,0.0018,0.6573,0.213,-0.906,-3.175,-49.00,-0.60,0.05,-49.13,-49.19
129466,1443.30,3300.00,1482.78,0.0017,0.1765,1.1853,0.292,0.145,-0.005,0.11,8.67,-0.0044,-0.6077,0.8022,0.944,-0.279,-0.354,0.16,-37.21,0.7684,0.0144,0.6389,0.060,1.277,0.061,-48.99,-0.56,0.05,-49.13,-49.18
129481,1468.28,3300.00,1482.78,-0.0056,0.1804,1.1812,1.635,0.725,-0.219,0.12,8.70,-0.0054,-0.6118,0.8027,-0.262,-0.020,-0.049,0.17,-37.22,0.7618,0.0092,0.6504,0.747,1.934,0.626,-48.97,-0.53,0.05,-49.13,-49.18
129506,1454.58,3300.00,1482.78,-0.0034,0.1841,1.1763,0.246,-0.161,0.163,0.12,8.71,0.0032,-0.6069,0.7998,0.410,-0.173,-0.308,0.16,-37.21,0.7498,-0.0144,0.6820,-0.429,0.743,1.603,-48.93,-0.55,0.05,-49.12,-49.17
129520,1457.00,3300.00,1446.52,-0.0027,0.1821,1.1829,-1.266,-0.924,0.300,0.10,8.69,0.0015,-0.6038,0.8010,-0.109,-0.127,-0.125,0.15,-37.20,0.7465,-0.0106,0.6764,-0.520,-2.463,0.214,-48.94,-0.56,0.05,-49.12,-49.17
129545,1528.72,3300.00,1531.94,0.0037,0.1812,1.1963,-0.792,-0.619,0.224,0.08,8.67,-0.0034,-0.6084,0.8008,0.456,-0.096,-0.003,0.15,-37.19,0.7605,0.0010,0.6400,-0.825,-1.654,-0.382,-49.00,-0.57,0.05,-49.11,-49.17
129559,1523.88,3300.00,1525.49,0.0012,0.1814,1.1904,0.673,0.389,0.178,0.09,8.68,0.0024,-0.6042,0.8040,0.761,-0.020,-0.155,0.14,-37.18,0.7643,0.0081,0.6350,0.549,0.041,-0.351,-49.03,-0.54,0.05,-49.11,-49.17
129584,1439.27,3300.00,1465.86,-0.0125,0.1865,1.1819,1.834,1.000,-0.188,0.12,8.73,-0.0046,-0.6111,0.7976,-0.873,0.179,0.318,0.15,-37.20,0.7540,-0.0101,0.6608,0.075,2.651,1.741,-48.96,-0.54,0.05,-49.11,-49.16
129599,1461.83,3300.00,1490.04,-0.0090,0.1863,1.1763,-0.075,-0.100,-0.280,0.13,8.73,-0.0056,-0.6033,0.8032,0.211,-0.111,-0.216,0.15,-37.19,0.7460,-0.0221,0.6777,0.365,0.590,0.397,-48.92,-0.56,0.05,-49.11,-49.16
129623,1482.78,3300.00,1503.74,0.0007,0.1809,1.1904,-2.060,-1.504,0.407,0.09,8.68,-0.0051,-0.6118,0.7947,-0.644,-0.005,-0.018,0.15,-37.22,0.7582,-0.0137,0.6636,-0.474,-2.051,-1.649,-48.97,-0.59,0.05,-49.10,-49.15
129638,1452.16,3300.00,1491.65,0.0029,0.1785,1.1951,-0.945,-0.573,0.239,0.07,8.66,-0.0022,-0.6140,0.8008,-0.048,-0.127,-0.049,0.15,-37.22,0.7634,0.0052,0.6399,-0.032,-2.250,-1.954,-49.02,-0.57,0.05,-49.10,-49.16
129663,1501.32,3300.00,1531.94,-0.0063,0.1772,1.1853,1.925,0.771,-0.066,0.10,8.71,-0.0049,-0.6099,0.8074,0.059,0.011,-0.094,0.15,-37.22,0.7692,0.0038,0.6373,0.365,2.132,0.580,-49.00,-0.54,0.05,-49.10,-49.15
129677,1512.60,3300.00,1534.36,-0.0012,0.1802,1.1860,1.284,0.709,-0.280,0.11,8.72,-0.0093,-0.6121,0.8030,-0.277,0.011,0.242,0.16,-37.23,0.7609,-0.0067,0.6560,1.251,3.018,0.779,-48.96,-0.52,0.05,-49.10,-49.15
129702,1440.07,3300.00,1445.71,-0.0029,0.1797,1.1858,-0.838,-0.817,0.407,0.09,8.70,-0.0017,-0.6089,0.8054,0.501,-0.050,-0.339,0.16,-37.21,0.7465,-0.0223,0.6851,-0.291,0.392,-0.214,-48.92,-0.56,0.05,-49.09,-49.15
129716,1456.19,3300.00,1470.70,-0.0015,0.1794,1.1843,-1.464,-0.924,-0.295,0.07,8.68,0.0002,-0.6057,0.7942,-0.338,-0.081,0.287,0.15,-37.22,0.7510,-0.0104,0.6653,-0.154,-2.433,-1.695,-48.95,-0.57,0.06,-49.09,-49.14
129741,1497.29,3300.00,1498.10,-0.0007,0.1860,1.1941,0.795,0.267,0.041,0.08,8.70,-0.0002,-0.6082,0.8091,0.883,-0.050,-0.293,0.15,-37.19,0.7688,0.0071,0.6378,-0.001,-0.295,-1.221,-48.98,-0.54,0.06,-49.09,-49.14
129756,1471.50,3300.00,1481.17,-0.0039,0.1853,1.1819,1.070,0.786,-0.326,0.09,8.72,0.0007,-0.6052,0.8113,-0.079,-0.157,0.287,0.14,-37.18,0.7664,0.0111,0.6399,1.007,1.476,-0.046,-48.98,-0.50,0.06,-49.09,-49.14
129780,1481.17,3300.00,1512.60,-0.0037,0.1848,1.1831,0.521,-0.100,0.010,0.09,8.74,-0.0042,-0.6113,0.8027,0.181,-0.035,-0.064,0.14,-37.18,0.7524,-0.0150,0.6798,0.106,2.254,1.557,-48.91,-0.51,0.06,-49.08,-49.14
129795,1523.08,3300.00,1530.33,-0.0012,0.1819,1.1848,-1.617,-0.771,0.255,0.08,8.71,0.0012,-0.6116,0.8008,0.181,-0.096,-0.186,0.14,-37.18,0.7438,-0.0217,0.6868,-0.016,-0.402,0.199,-48.88,-0.54,0.06,-49.07,-49.13
129820,1440.88,3300.00,1457.80,-0.0022,0.1790,1.1904,-0.624,-0.527,0.316,0.07,8.69,-0.0020,-0.6089,0.7903,-0.399,-0.050,0.089,0.14,-37.20,0.7606,-0.0060,0.6515,-0.627,-2.677,-1.603,-48.96,-0.55,0.06,-49.07,-49.13
129834,1439.27,3300.00,1470.70,-0.0034,0.1770,1.1885,0.551,0.343,-0.356,0.07,8.70,-0.0010,-0.6077,0.7974,0.150,-0.188,-0.186,0.13,-37.20,0.7736,0.0095,0.6337,-0.169,-1.898,-0.840,-49.02,-0.52,0.06,-49.07,-49.13
129859,1498.10,3300.00,1535.16,-0.0046,0.1826,1.1890,0.902,0.129,-0.051,0.08,8.72,-0.0046,-0.6089,0.8027,-0.155,-0.081,-0.003,0.13,-37.20,0.7689,-0.0049,0.6410,0.274,1.827,2.015,-49.00,-0.52,0.06,-49.07,-49.13
129873,1467.47,3300.00,1477.14,-0.0032,0.1785,1.1853,-0.624,-0.359,0.132,0.08,8.71,-0.0073,-0.6116,0.7905,-0.247,-0.142,0.074,0.14,-37.22,0.7512,-0.0171,0.6646,0.365,2.086,1.695,-48.96,-0.53,0.06,-49.07,-49.12
129898,1457.00,3300.00,1486.81,-0.0020,0.1794,1.1846,-0.991,-1.092,0.285,0.05,8.68,-0.0022,-0.6062,0.7961,0.227,-0.111,-0.232,0.13,-37.21,0.7538,-0.0267,0.6729,-0.169,-1.272,-1.008,-48.97,-0.57,0.06,-49.06,-49.12
129913,1500.51,3300.00,1508.57,-0.0010,0.1824,1.1914,-0.060,-0.054,-0.097,0.05,8.68,-0.0005,-0.6086,0.8042,-0.506,-0.081,0.348,0.13,-37.22,0.7534,-0.0085,0.6522,-0.413,-2.143,-1.817,-49.01,-0.58,0.06,-49.06,-49.12
129937,1444.10,3300.00,1452.97,-0.0017,0.1836,1.1775,1.605,0.648,-0.127,0.07,8.72,-0.0037,-0.6094,0.8159,0.914,-0.111,-0.339,0.13,-37.19,0.7766,0.0016,0.6338,0.457,1.063,-1.023,-49.02,-0.55,0.06,-49.07,-49.13
129952,1432.82,3300.00,1458.61,-0.0042,0.1875,1.1770,0.215,0.297,-0.203,0.07,8.73,0.0020,-0.6045,0.8071,-0.338,0.163,0.272,0.13,-37.18,0.7620,0.0048,0.6456,1.022,3.567,0.046,-48.98,-0.52,0.06,-49.06,-49.12
129977,1528.72,3300.00,1515.82,-0.0024,0.1851,1.1875,-0.945,-0.604,0.071,0.06,8.71,-0.0042,-0.6106,0.8008,0.410,-0.035,-0.186,0.13,-37.18,0.7531,-0.0232,0.6835,0.717,2.163,-0.443,-48.90,-0.53,0.06,-49.06,-49.12
129991,1498.90,3300.00,1502.93,-0.0017,0.1819,1.1892,-1.128,-0.420,0.041,0.05,8.70,-0.0010,-0.6016,0.8010,0.394,0.011,-0.003,0.13,-37.17,0.7468,-0.0134,0.6857,-0.200,-0.494,-1.557,-48.88,-0.55,0.06,-49.05,-49.11
130016,1448.13,3300.00,1477.14,-0.0032,0.1814,1.1841,1.314,0.786,-0.249,0.07,8.73,-0.0051,-0.6096,0.8010,-0.552,0.087,0.455,0.13,-37.18,0.7719,0.0085,0.6490,-0.306,-2.066,-1.801,-48.95,-0.53,0.06,-49.05,-49.11
130030,1495.68,3300.00,1508.57,-0.0042,0.1843,1.1826,0.963,0.740,-0.112,0.09,8.75,-0.0029,-0.6108,0.8086,0.639,-0.066,-0.430,0.13,-37.17,0.7751,0.0176,0.6375,-0.276,-0.341,0.229,-48.99,-0.49,0.06,-49.05,-49.11
130055,1457.00,3300.00,1469.08,-0.0061,0.1807,1.1875,-0.838,-0.359,0.102,0.08,8.72,-0.0061,-0.6099,0.8057,-1.025,0.163,0.348,0.14,-37.19,0.7633,-0.0061,0.6609,-0.047,1.384,2.748,-48.96,-0.49,0.06,-49.05,-49.11
130070,1415.90,3300.00,1451.36,-0.0039,0.1760,1.1904,-1.510,-0.756,0.071,0.07,8.70,-0.0017,-0.6116,0.8000,0.150,-0.050,0.013,0.14,-37.20,0.7498,-0.0184,0.6771,-0.490,-0.112,2.214,-48.94,-0.52,0.06,-49.05,-49.11
130094,1521.47,3300.00,1533.55,-0.0007,0.1714,1.1875,-0.060,0.022,0.010,0.07,8.69,-0.0049,-0.6143,0.8062,-0.384,0.102,0.257,0.14,-37.21,0.7589,-0.0184,0.6575,-1.131,-3.410,-0.076,-49.02,-0.57,0.06,-49.05,-49.11
130109,1501.32,3300.00,1526.30,-0.0015,0.1780,1.1855,1.040,0.633,-0.173,0.08,8.70,-0.0085,-0.6138,0.7974,-0.369,0.133,0.333,0.15,-37.22,0.7656,-0.0061,0.6378,-1.146,-2.982,-0.183,-49.09,-0.58,0.06,-49.06,-49.12
130134,1434.43,3300.00,1469.08,-0.0017,0.1807,1.1846,0.856,0.526,-0.142,0.10,8.72,-0.0017,-0.6069,0.8062,0.929,-0.203,-0.171,0.15,-37.19,0.7670,-0.0052,0.6263,0.274,1.476,0.977,-49.09,-0.58,0.06,-49.07,-49.13
130148,1464.25,3300.00,1495.68,-0.0022,0.1907,1.1794,-0.258,-0.100,-0.051,0.09,8.72,0.0010,-0.6055,0.8005,-0.522,0.118,0.272,0.14,-37.20,0.7528,-0.0148,0.6482,1.113,3.430,0.794,-49.04,-0.57,0.06,-49.07,-49.13
130173,1475.53,3300.00,1494.07,-0.0007,0.1858,1.1885,-0.915,-0.420,0.102,0.08,8.70,0.0005,-0.6023,0.8074,0.898,-0.005,-0.201,0.14,-37.17,0.7410,-0.0283,0.6851,0.594,1.659,-1.343,-48.97,-0.60,0.06,-49.07,-49.13
130187,1449.74,3300.00,1456.19,-0.0027,0.1841,1.1892,-0.334,0.007,-0.173,0.08,8.70,0.0012,-0.6069,0.8047,-0.170,0.224,0.074,0.14,-37.17,0.7498,-0.0182,0.6710,0.304,-0.845,-2.977,-48.96,-0.61,0.06,-49.07,-49.13
130212,1502.93,3300.00,1518.24,-0.0007,0.1858,1.1843,0.597,0.496,-0.097,0.10,8.72,-0.0005,-0.6101,0.8022,-0.079,0.133,0.089,0.14,-37.17,0.7688,0.0098,0.6444,0.259,0.025,-2.641,-48.98,-0.57,0.06,-49.07,-49.13
130227,1522.27,3300.00,1534.36,-0.0046,0.1782,1.1885,0.047,0.404,-0.203,0.10,8.72,0.0010,-0.6077,0.8027,0.242,0.148,-0.003,0.14,-37.17,0.7723,0.0170,0.6415,0.930,1.934,-1.221,-48.98,-0.52,0.06,-49.07,-49.13
130252,1430.40,3300.00,1457.00,-0.0034,0.1792,1.1868,-0.884,-0.283,-0.020,0.10,8.69,-0.0037,-0.6096,0.8005,-0.308,0.072,0.257,0.14,-37.18,0.7604,-0.0015,0.6761,0.350,2.392,1.237,-48.91,-0.50,0.06,-49.07,-49.12
130266,1457.00,3300.00,1480.37,-0.0044,0.1750,1.1838,-0.655,-0.176,0.102,0.10,8.68,-0.0002,-0.6094,0.8018,0.685,-0.020,-0.049,0.14,-37.17,0.7538,-0.0103,0.6865,-0.306,-0.265,0.931,-48.89,-0.51,0.06,-49.06,-49.12
130291,1495.68,3300.00,1506.15,-0.0093,0.1782,1.1843,0.704,0.557,-0.035,0.12,8.69,-0.0081,-0.6130,0.7957,-0.491,0.194,0.180,0.15,-37.19,0.7625,-0.0004,0.6628,-1.360,-3.837,0.489,-48.98,-0.54,0.05,-49.06,-49.12
130305,1457.00,3300.00,1472.31,-0.0032,0.1794,1.1819,0.490,0.465,-0.097,0.13,8.70,-0.0015,-0.6125,0.7974,0.639,0.041,-0.125,0.15,-37.19,0.7723,0.0048,0.6385,-1.406,-3.150,1.298,-49.06,-0.54,0.05,-49.07,-49.12
130330,1501.32,3300.00,1498.10,0.0017,0.1797,1.1787,-0.762,-0.283,-0.005,0.11,8.68,-0.0005,-0.6123,0.8035,-0.109,0.148,0.196,0.15,-37.19,0.7677,-0.0046,0.6407,-0.474,0.453,3.176,-49.07,-0.55,0.05,-49.08,-49.13
130345,1519.85,3300.00,1523.88,-0.0015,0.1782,1.1848,-0.411,-0.115,-0.081,0.11,8.67,-0.0015,-0.6074,0.7961,-0.247,0.072,0.242,0.15,-37.20,0.7542,-0.0228,0.6512,-0.184,1.063,2.657,-49.06,-0.58,0.05,-49.09,-49.14
130369,1454.58,3300.00,1452.97,0.0005,0.1782,1.1831,0.337,0.328,-0.081,0.12,8.68,0.0022,-0.6047,0.7988,0.349,-0.142,-0.155,0.14,-37.19,0.7440,-0.0331,0.6674,-0.291,-0.631,-0.321,-49.05,-0.63,0.05,-49.09,-49.14
130384,1449.74,3300.00,1475.53,0.0027,0.1885,1.1824,0.902,0.404,-0.005,0.12,8.70,-0.0012,-0.6050,0.8037,0.211,0.102,-0.094,0.14,-37.18,0.7529,-0.0229,0.6523,-0.123,-1.196,-2.061,-49.07,-0.66,0.05,-49.10,-49.14
130409,1523.08,3300.00,1519.05,-0.0073,0.1787,1.1821,-0.487,-0.329,-0.356,0.11,8.68,-0.0015,-0.6047,0.8064,-0.094,0.056,0.043,0.14,-37.18,0.7637,-0.0006,0.6375,0.839,1.949,-2.092,-49.04,-0.63,0.04,-49.10,-49.15
130423,1487.62,3300.00,1481.98,0.0007,0.1855,1.1833,0.276,0.175,0.239,0.11,8.69,-0.0056,-0.6013,0.7971,-1.300,0.209,0.471,0.15,-37.19,0.7560,0.0066,0.6467,1.083,3.002,-1.511,-49.01,-0.59,0.04,-49.10,-49.15
130448,1482.78,3300.00,1500.51,-0.0024,0.1826,1.1943,-0.090,-0.268,-0.035,0.11,8.69,-0.0010,-0.6094,0.8010,0.761,0.011,-0.369,0.15,-37.18,0.7543,-0.0135,0.6779,0.610,2.376,-0.977,-48.93,-0.58,0.04,-49.10,-49.14
130462,1514.21,3300.00,1507.77,-0.0046,0.1802,1.1836,-0.670,-0.497,0.178,0.10,8.68,-0.0027,-0.6125,0.7983,-0.598,-0.005,0.501,0.15,-37.19,0.7505,-0.0046,0.6733,0.564,0.270,-2.015,-48.91,-0.57,0.04,-49.09,-49.14
130487,1462.64,3300.00,1457.00,-0.0027,0.1782,1.1873,-0.151,-0.145,0.056,0.10,8.67,-0.0056,-0.6130,0.8003,0.501,0.041,-0.171,0.15,-37.18,0.7737,0.0100,0.6569,-0.367,-0.540,-1.145,-48.94,-0.55,0.04,-49.09,-49.13
130502,1446.52,3300.00,1442.49,-0.0024,0.1790,1.1855,0.826,0.374,-0.112,0.11,8.68,-0.0034,-0.6113,0.8054,0.013,-0.066,0.043,0.15,-37.18,0.7693,0.0170,0.6517,-0.062,-0.295,0.428,-48.96,-0.51,0.04,-49.09,-49.13
130527,1519.85,3300.00,1537.58,-0.0039,0.1777,1.1851,0.566,0.038,0.071,0.11,8.69,-0.0051,-0.6101,0.7974,0.517,0.026,0.043,0.15,-37.18,0.7645,-0.0038,0.6655,-0.703,0.682,2.748,-48.94,-0.53,0.04,-49.08,-49.13
130541,1497.29,3300.00,1507.77,-0.0029,0.1826,1.1799,-0.380,-0.237,0.148,0.11,8.69,-0.0024,-0.6082,0.8047,1.036,0.011,-0.247,0.15,-37.16,0.7484,-0.0090,0.6708,-0.581,-0.555,1.939,-48.93,-0.54,0.04,-49.08,-49.13
130566,1457.00,3300.00,1476.34,0.0002,0.1804,1.1877,-0.029,-0.191,-0.020,0.10,8.69,0.0007,-0.6099,0.7996,-0.689,0.133,0.471,0.15,-37.18,0.7577,-0.0144,0.6633,-1.283,-2.188,0.947,-48.98,-0.58,0.05,-49.08,-49.13
130580,1500.51,3300.00,1519.85,-0.0034,0.1841,1.1821,0.643,0.313,-0.127,0.10,8.70,-0.0024,-0.6064,0.7996,0.623,0.056,-0.033,0.15,-37.17,0.7534,-0.0032,0.6365,-0.856,-2.326,0.611,-49.03,-0.59,0.05,-49.09,-49.13
130605,1467.47,3300.00,1459.41,-0.0044,0.1902,1.1868,0.673,0.221,-0.051,0.11,8.73,-0.0027,-0.6067,0.8081,-0.186,0.072,0.226,0.16,-37.17,0.7643,-0.0149,0.6379,-0.337,0.895,1.069,-49.03,-0.61,0.05,-49.09,-49.14
130620,1439.27,3300.00,1467.47,-0.0049,0.1838,1.1809,-0.502,-0.176,0.010,0.11,8.72,-0.0027,-0.6067,0.8032,-0.476,0.118,0.226,0.16,-37.17,0.7498,-0.0117,0.6499,0.655,1.384,0.596,-49.02,-0.61,0.05,-49.09,-49.14
130645,1519.85,3300.00,1539.19,0.0002,0.1809,1.1887,-0.838,-0.527,0.194,0.10,8.70,0.0029,-0.6091,0.8027,0.059,-0.035,0.074,0.15,-37.17,0.7531,-0.0256,0.6602,-0.032,0.743,-1.023,-48.99,-0.65,0.05,-49.09,-49.14
130659,1522.27,3300.00,1522.27,-0.0015,0.1770,1.1855,-0.121,0.084,-0.127,0.10,8.69,-0.0007,-0.6086,0.8042,-0.583,0.026,0.379,0.15,-37.18,0.7512,-0.0131,0.6531,0.472,-0.097,-2.443,-48.99,-0.65,0.05,-49.09,-49.14
130684,1441.69,3300.00,1473.92,-0.0059,0.1802,1.1821,1.269,0.542,0.056,0.11,8.72,-0.0034,-0.6082,0.8037,0.471,-0.111,-0.171,0.15,-37.17,0.7732,-0.0002,0.6434,0.518,1.262,-1.924,-48.99,-0.62,0.05,-49.09,-49.14
130699,1463.44,3300.00,1502.93,-0.0068,0.1814,1.1855,0.200,0.114,-0.127,0.12,8.73,-0.0005,-0.6079,0.7969,-0.170,-0.081,0.074,0.14,-37.17,0.7679,0.0073,0.6503,0.930,1.995,-0.916,-48.97,-0.59,0.04,-49.09,-49.14
130723,1486.01,3300.00,1474.73,-0.0015,0.1807,1.1887,-0.869,-0.649,0.224,0.10,8.70,-0.0005,-0.6069,0.7954,0.471,-0.066,0.028,0.14,-37.17,0.7604,-0.0082,0.6741,0.350,2.041,0.229,-48.91,-0.58,0.04,-49.09,-49.13
130738,1457.00,3300.00,1481.17,-0.0020,0.1814,1.1885,-0.686,-0.191,0.071,0.10,8.69,-0.0032,-0.6116,0.8081,0.333,-0.005,-0.171,0.14,-37.16,0.7499,-0.0033,0.6748,0.304,-0.036,-0.611,-48.90,-0.57,0.04,-49.08,-49.12
130763,1510.99,3300.00,1532.75,-0.0027,0.1875,1.1819,1.299,0.618,0.102,0.12,8.73,-0.0049,-0.6072,0.7991,-0.231,0.011,0.150,0.14,-37.17,0.7642,0.0005,0.6604,-0.993,-1.624,0.031,-48.94,-0.58,0.04,-49.08,-49.12
130777,1544.03,3300.00,1535.97,-0.0066,0.1824,1.1853,0.826,0.572,-0.295,0.13,8.74,-0.0020,-0.6060,0.8010,0.700,0.026,-0.140,0.14,-37.16,0.7620,0.0107,0.6475,-0.535,-1.700,0.626,-48.98,-0.56,0.04,-49.08,-49.12
130802,1436.85,3300.00,1461.03,-0.0039,0.1829,1.1814,-0.747,-0.604,0.209,0.11,8.73,0.0002,-0.6099,0.7998,-0.445,0.026,0.348,0.14,-37.17,0.7606,-0.0051,0.6548,-0.535,0.392,2.244,-48.98,-0.57,0.04,-49.08,-49.12
130816,1454.58,3300.00,1484.40,-0.0012,0.1824,1.1887,-1.434,-0.695,0.056,0.10,8.71,-0.0034,-0.6074,0.8015,0.059,0.179,0.058,0.14,-37.17,0.7510,-0.0127,0.6617,-0.200,-0.112,1.771,-48.97,-0.58,0.04,-49.08,-49.12
130841,1497.29,3300.00,1526.30,-0.0049,0.1848,1.1853,0.444,0.206,0.026,0.11,8.72,-0.0046,-0.6096,0.8015,-0.064,0.011,-0.064,0.15,-37.17,0.7534,-0.0194,0.6565,-0.978,-1.517,0.504,-49.01,-0.63,0.04,-49.08,-49.12
130856,1479.56,3300.00,1469.89,-0.0039,0.1785,1.1814,0.872,0.740,-0.249,0.12,8.73,-0.0005,-0.6079,0.8030,-0.002,0.102,0.058,0.15,-37.17,0.7556,-0.0094,0.6478,-0.352,-1.959,-0.504,-49.04,-0.64,0.04,-49.09,-49.13
130880,1491.65,3300.00,1498.10,-0.0083,0.1838,1.1802,0.124,0.007,0.087,0.13,8.73,-0.0051,-0.6106,0.8032,0.211,0.011,0.058,0.15,-37.17,0.7648,-0.0061,0.6364,0.029,0.743,-0.244,-49.05,-0.63,0.04,-49.10,-49.13
130895,1525.49,3300.00,1542.42,-0.0044,0.1821,1.1848,-1.205,-0.344,0.209,0.13,8.72,-0.0034,-0.6086,0.8030,-0.216,0.179,0.196,0.15,-37.17,0.7589,-0.0096,0.6455,0.778,2.056,-0.153,-49.03,-0.63,0.04,-49.10,-49.14
130920,1443.30,3300.00,1454.58,-0.0068,0.1780,1.1892,-0.182,-0.191,-0.081,0.12,8.71,-0.0042,-0.6086,0.8022,0.333,0.056,-0.140,0.16,-37.16,0.7521,-0.0161,0.6666,0.533,1.812,-0.992,-48.97,-0.63,0.04,-49.10,-49.13
130934,1452.97,3300.00,1477.14,-0.0059,0.1821,1.1885,0.536,0.450,-0.158,0.13,8.72,-0.0015,-0.6082,0.7986,0.043,0.118,-0.003,0.16,-37.16,0.7532,-0.0160,0.6680,0.579,0.071,-2.030,-48.96,-0.64,0.03,-49.10,-49.13
130959,1509.38,3300.00,1525.49,-0.0017,0.1807,1.1819,0.459,0.068,-0.066,0.13,8.73,-0.0056,-0.6113,0.8037,0.104,0.087,-0.003,0.16,-37.16,0.7644,0.0028,0.6477,0.121,-0.112,-1.603,-48.98,-0.62,0.03,-49.10,-49.13
130973,1473.11,3300.00,1485.20,-0.0029,0.1807,1.1838,-0.777,-0.268,-0.051,0.13,8.72,-0.0054,-0.6125,0.8079,0.257,0.011,-0.125,0.16,-37.16,0.7646,0.0101,0.6461,0.411,0.743,-0.916,-48.98,-0.58,0.03,-49.10,-49.14
130998,1488.42,3300.00,1501.32,-0.0007,0.1802,1.1887,-0.579,-0.390,-0.020,0.12,8.70,0.0002,-0.6123,0.7947,-0.125,0.133,-0.003,0.16,-37.17,0.7617,-0.0016,0.6648,0.442,1.674,0.672,-48.94,-0.56,0.03,-49.10,-49.13
131013,1513.41,3300.00,1508.57,-0.0039,0.1777,1.1895,0.398,0.313,-0.203,0.13,8.70,-0.0063,-0.6116,0.8079,0.120,0.011,0.150,0.17,-37.17,0.7552,-0.0031,0.6761,0.045,0.224,0.702,-48.92,-0.55,0.04,-49.09,-49.13
131038,1448.13,3300.00,1457.00,-0.0032,0.1838,1.1785,0.994,0.404,-0.280,0.14,8.73,-0.0044,-0.6086,0.8044,-0.018,0.056,0.150,0.17,-37.17,0.7545,-0.0061,0.6700,-0.917,-2.021,0.611,-48.96,-0.58,0.04,-49.10,-49.13
131052,1454.58,3300.00,1443.30,-0.0066,0.1819,1.1853,-0.121,-0.039,-0.066,0.14,8.73,-0.0027,-0.6089,0.7983,-0.064,0.041,0.135,0.17,-37.17,0.7607,-0.0020,0.6511,-0.764,-2.143,0.565,-49.00,-0.58,0.04,-49.10,-49.13
131077,1531.94,3300.00,1530.33,-0.0032,0.1799,1.1917,-1.281,-0.680,0.392,0.12,8.69,0.0005,-0.6086,0.7976,-0.186,0.056,-0.049,0.17,-37.18,0.7638,-0.0074,0.6451,-0.612,-0.066,1.771,-49.02,-0.59,0.04,-49.10,-49.14
131091,1490.84,3300.00,1506.96,-0.0010,0.1804,1.1860,-0.472,-0.100,0.010,0.12,8.69,-0.0034,-0.6167,0.8064,-0.445,0.056,0.180,0.17,-37.19,0.7548,-0.0122,0.6469,-0.138,0.331,1.481,-49.02,-0.61,0.04,-49.10,-49.14
131116,1467.47,3300.00,1490.84,-0.0005,0.1772,1.1826,1.192,0.542,-0.173,0.13,8.71,-0.0012,-0.6074,0.8044,0.410,0.026,-0.079,0.17,-37.18,0.7524,-0.0244,0.6556,-0.184,0.208,0.107,-49.02,-0.64,0.04,-49.11,-49.14
131131,1485.20,3300.00,1501.32,-0.0051,0.1782,1.1851,0.658,0.496,0.026,0.14,8.72,-0.0059,-0.6069,0.8032,-0.537,0.041,0.196,0.17,-37.18,0.7521,-0.0156,0.6517,0.365,-0.677,-1.359,-49.03,-0.65,0.04,-49.11,-49.15
131156,1475.53,3300.00,1459.41,-0.0007,0.1768,1.1814,-0.930,-0.542,0.132,0.12,8.69,-0.0042,-0.6069,0.7993,0.547,-0.111,-0.110,0.17,-37.17,0.7653,-0.0051,0.6415,0.167,0.514,-1.359,-49.03,-0.64,0.04,-49.11,-49.15
131170,1445.71,3300.00,1457.00,-0.0039,0.1785,1.1863,-1.052,-0.527,0.178,0.12,8.67,-0.0046,-0.6047,0.8081,0.120,-0.050,-0.018,0.17,-37.16,0.7659,-0.0042,0.6388,0.808,1.384,-1.084,-49.04,-0.63,0.04,-49.12,-49.16
131195,1534.36,3300.00,1535.16,-0.0020,0.1799,1.1912,0.200,0.053,-0.005,0.12,8.68,-0.0032,-0.6077,0.8093,0.104,0.041,-0.064,0.17,-37.16,0.7596,-0.0111,0.6650,0.701,2.437,-0.824,-48.97,-0.62,0.04,-49.12,-49.16
131209,1534.36,3300.00,1534.36,-0.0037,0.1780,1.1899,0.872,0.725,-0.234,0.13,8.68,-0.0010,-0.6086,0.8035,0.028,-0.020,0.028,0.17,-37.15,0.7567,-0.0067,0.6678,0.579,1.002,-1.206,-48.95,-0.61,0.04,-49.11,-49.15
131234,1449.74,3300.00,1457.00,-0.0051,0.1851,1.1804,0.490,0.236,-0.142,0.14,8.70,-0.0061,-0.6099,0.7944,0.364,-0.020,0.028,0.17,-37.15,0.7617,-0.0042,0.6635,-0.215,-0.555,-0.992,-48.96,-0.61,0.04,-49.11,-49.15
131249,1474.73,3300.00,1491.65,-0.0078,0.1814,1.1802,-0.808,-0.390,-0.035,0.14,8.69,-0.0037,-0.6082,0.8035,0.639,-0.020,-0.155,0.17,-37.14,0.7638,0.0090,0.6567,-0.077,-0.540,-0.382,-48.98,-0.58,0.04,-49.11,-49.15
131274,1494.07,3300.00,1482.78,-0.0022,0.1819,1.1819,-0.976,-0.695,0.071,0.12,8.67,-0.0007,-0.6113,0.8003,-0.460,-0.035,0.211,0.17,-37.16,0.7656,-0.0006,0.6567,-0.276,0.376,1.267,-48.98,-0.58,0.04,-49.11,-49.15
131288,1469.08,3300.00,1465.86,-0.0012,0.1780,1.1902,-0.151,-0.054,0.071,0.12,8.66,-0.0037,-0.6094,0.8008,0.333,-0.066,-0.293,0.17,-37.16,0.7583,-0.0073,0.6628,-0.261,-0.173,1.466,-48.98,-0.58,0.04,-49.11,-49.15
131313,1507.77,3300.00,1530.33,-0.0010,0.1780,1.1882,1.147,0.572,-0.066,0.13,8.69,-0.0005,-0.6113,0.8008,-0.308,0.041,0.119,0.17,-37.17,0.7571,-0.0157,0.6626,-0.673,-1.196,0.794,-49.00,-0.61,0.04,-49.11,-49.15
131327,1519.05,3300.00,1522.27,-0.0046,0.1829,1.1785,0.551,0.251,-0.051,0.14,8.70,-0.0039,-0.6135,0.7976,-0.201,-0.005,0.211,0.17,-37.18,0.7557,-0.0123,0.6545,-0.520,-1.608,0.244,-49.03,-0.63,0.04,-49.12,-49.16
131352,1448.13,3300.00,1465.05,-0.0034,0.1799,1.1870,-0.853,-0.634,0.056,0.12,8.68,0.0007,-0.6094,0.8042,0.120,-0.111,-0.110,0.16,-37.18,0.7635,-0.0107,0.6415,-0.184,-0.280,0.550,-49.05,-0.64,0.04,-49.12,-49.16
131367,1445.71,3300.00,1485.20,-0.0044,0.1816,1.1890,-1.128,-0.558,0.239,0.12,8.66,-0.0051,-0.6060,0.7993,-0.369,0.026,0.104,0.17,-37.18,0.7631,-0.0126,0.6453,0.259,0.697,0.260,-49.06,-0.65,0.04,-49.12,-49.16
131391,1510.18,3300.00,1523.88,-0.0051,0.1794,1.1877,0.566,0.435,0.163,0.13,8.67,-0.0051,-0.6082,0.8022,0.303,-0.035,-0.079,0.17,-37.17,0.7548,-0.0195,0.6592,0.365,1.079,-0.595,-49.03,-0.66,0.04,-49.13,-49.17
131406,1461.83,3300.00,1472.31,-0.0024,0.1821,1.1846,1.040,0.450,-0.173,0.13,8.69,-0.0044,-0.6077,0.8062,0.043,-0.035,0.119,0.17,-37.17,0.7535,-0.0134,0.6631,0.457,0.392,-1.343,-49.01,-0.66,0.04,-49.13,-49.17
131431,1508.57,3300.00,1513.41,-0.0056,0.1829,1.1860,-0.151,-0.130,0.132,0.13,8.69,-0.0051,-0.6104,0.8010,0.181,0.087,0.043,0.17,-37.17,0.7607,-0.0037,0.6521,0.426,0.560,-1.710,-49.01,-0.65,0.04,-49.13,-49.17
131445,1520.66,3300.00,1523.08,-0.0059,0.1833,1.1880,-0.731,-0.359,0.041,0.13,8.68,-0.0042,-0.6064,0.8010,0.135,0.026,0.074,0.17,-37.16,0.7645,0.0027,0.6553,0.732,1.155,-1.374,-49.00,-0.62,0.04,-49.13,-49.17
131470,1444.10,3300.00,1455.38,-0.0015,0.1802,1.1860,-0.334,-0.176,0.209,0.13,8.67,-0.0051,-0.6064,0.8010,-0.170,-0.111,0.013,0.17,-37.17,0.7594,-0.0027,0.6633,0.213,1.353,-0.153,-48.96,-0.60,0.04,-49.13,-49.17
131484,1440.07,3300.00,1457.80,-0.0027,0.1792,1.1831,0.490,0.190,-0.020,0.13,8.67,-0.0015,-0.6086,0.8027,-0.094,0.056,-0.018,0.17,-37.17,0.7581,-0.0021,0.6669,0.259,0.315,-0.046,-48.95,-0.59,0.04,-49.12,-49.16
131509,1509.38,3300.00,1508.57,-0.0071,0.1831,1.1858,0.246,0.068,0.087,0.13,8.68,-0.0049,-0.6055,0.8035,0.043,-0.035,-0.018,0.17,-37.17,0.7640,-0.0016,0.6671,-0.291,-1.013,-0.046,-48.98,-0.59,0.04,-49.12,-49.16
131524,1473.92,3300.00,1507.77,-0.0037,0.1799,1.1814,-0.777,-0.436,0.087,0.13,8.67,-0.0037,-0.6145,0.8059,-0.216,0.011,-0.049,0.18,-37.17,0.7643,0.0004,0.6564,-0.337,-1.120,0.076,-49.00,-0.58,0.04,-49.12,-49.16
131548,1457.00,3300.00,1498.10,0.0007,0.1753,1.1885,-0.518,-0.237,0.194,0.12,8.65,-0.0044,-0.6099,0.8044,0.257,0.041,0.089,0.18,-37.17,0.7670,-0.0022,0.6493,-0.551,0.041,1.160,-49.01,-0.59,0.04,-49.12,-49.17
131563,1488.42,3300.00,1497.29,-0.0042,0.1746,1.1904,0.398,0.358,0.026,0.13,8.65,-0.0042,-0.6064,0.7993,0.074,0.148,-0.003,0.18,-37.16,0.7577,-0.0065,0.6520,-0.047,-0.005,1.130,-49.02,-0.59,0.04,-49.12,-49.17
131588,1440.07,3300.00,1447.33,-0.0017,0.1833,1.1824,0.994,0.633,-0.066,0.14,8.68,-0.0037,-0.6094,0.8047,0.165,-0.050,0.074,0.18,-37.16,0.7552,-0.0164,0.6587,-0.444,-0.341,0.733,-49.02,-0.62,0.04,-49.13,-49.17
131602,1423.96,3300.00,1444.10,-0.0022,0.1841,1.1831,0.047,0.038,-0.158,0.14,8.68,-0.0073,-0.6089,0.8074,0.120,-0.066,-0.018,0.18,-37.16,0.7534,-0.0142,0.6556,-0.306,-0.876,0.061,-49.04,-0.63,0.04,-49.13,-49.17
131627,1508.57,3300.00,1549.67,-0.0029,0.1812,1.1836,-0.991,-0.588,0.361,0.13,8.66,-0.0039,-0.6067,0.8037,0.089,-0.127,-0.049,0.18,-37.15,0.7616,-0.0090,0.6472,-0.138,-0.021,-0.259,-49.05,-0.64,0.04,-49.13,-49.18
131641,1496.48,3300.00,1514.21,-0.0024,0.1792,1.1880,-0.624,-0.344,0.163,0.12,8.65,-0.0037,-0.6086,0.8081,0.242,-0.020,-0.125,0.18,-37.14,0.7589,-0.0076,0.6472,0.381,0.529,-0.427,-49.05,-0.63,0.04,-49.14,-49.18
131666,1442.49,3300.00,1485.20,-0.0042,0.1812,1.1853,0.643,0.236,-0.020,0.13,8.67,-0.0007,-0.6086,0.8005,-0.293,-0.020,0.150,0.18,-37.15,0.7584,-0.0138,0.6582,0.426,1.369,-0.580,-49.02,-0.64,0.05,-49.14,-49.18
131681,1502.93,3300.00,1509.38,-0.0051,0.1841,1.1863,0.475,0.297,-0.188,0.14,8.68,-0.0029,-0.6084,0.8005,-0.064,0.011,0.104,0.18,-37.16,0.7559,-0.0125,0.6586,0.671,0.941,-1.313,-49.00,-0.63,0.04,-49.14,-49.18
131705,1461.03,3300.00,1469.08,-0.0007,0.1792,1.1833,-0.579,-0.313,0.026,0.13,8.66,-0.0012,-0.6130,0.8015,-0.048,-0.111,0.058,0.17,-37.16,0.7626,-0.0007,0.6620,0.304,0.392,-1.710,-48.99,-0.62,0.05,-49.14,-49.18
131720,1443.30,3300.00,1448.94,-0.0017,0.1755,1.1863,-0.976,-0.375,0.224,0.12,8.64,-0.0017,-0.6138,0.8042,-0.079,-0.081,0.104,0.17,-37.17,0.7657,-0.0006,0.6508,0.549,0.315,-1.328,-49.00,-0.60,0.05,-49.14,-49.18
131745,1527.11,3300.00,1534.36,-0.0071,0.1765,1.1873,0.337,0.099,0.071,0.13,8.65,-0.0034,-0.6162,0.7996,0.043,0.041,-0.171,0.17,-37.18,0.7638,0.0004,0.6583,0.213,0.895,0.199,-48.99,-0.58,0.05,-49.13,-49.18
131759,1514.21,3300.00,1534.36,-0.0015,0.1758,1.1802,0.826,0.389,-0.081,0.13,8.65,-0.0059,-0.6074,0.7969,0.211,-0.096,-0.140,0.17,-37.18,0.7594,0.0000,0.6669,0.213,0.483,0.443,-48.97,-0.56,0.05,-49.13,-49.18
131784,1453.77,3300.00,1481.98,-0.0020,0.1821,1.1904,-0.182,-0.252,0.117,0.12,8.65,-0.0044,-0.6116,0.8057,0.089,-0.096,-0.232,0.17,-37.17,0.7584,-0.0071,0.6647,-0.367,-1.043,0.626,-48.99,-0.57,0.05,-49.13,-49.18
131798,1473.92,3300.00,1501.32,-0.0024,0.1836,1.1824,-1.037,-0.771,0.331,0.11,8.64,-0.0005,-0.6079,0.8025,0.211,-0.081,-0.110,0.17,-37.17,0.7589,-0.0061,0.6581,-0.459,-1.639,0.611,-49.02,-0.58,0.05,-49.13,-49.18
131823,1473.11,3300.00,1490.04,0.0007,0.1782,1.1860,0.001,-0.023,-0.173,0.11,8.64,-0.0049,-0.6101,0.8025,-0.109,-0.188,-0.110,0.17,-37.17,0.7614,-0.0054,0.6479,-0.306,-0.723,0.733,-49.05,-0.59,0.05,-49.13,-49.18
131838,1452.97,3300.00,1467.47,-0.0078,0.1807,1.1846,1.131,0.526,-0.173,0.12,8.65,-0.0044,-0.6069,0.8071,0.211,-0.264,-0.125,0.16,-37.17,0.7607,-0.0115,0.6510,-0.047,0.132,0.947,-49.05,-0.59,0.05,-49.14,-49.18
131862,1513.41,3300.00,1543.22,-0.0039,0.1838,1.1841,-0.105,-0.145,0.087,0.12,8.66,-0.0037,-0.6033,0.8069,-0.354,-0.173,0.028,0.16,-37.17,0.7533,-0.0171,0.6592,0.152,0.300,0.092,-49.04,-0.61,0.05,-49.14,-49.18
131877,1530.33,3300.00,1525.49,-0.0059,0.1831,1.1831,-0.747,-0.542,0.117,0.12,8.65,-0.0044,-0.6086,0.8013,-0.399,-0.035,0.135,0.16,-37.17,0.7510,-0.0194,0.6558,0.197,0.117,-0.779,-49.04,-0.63,0.05,-49.14,-49.19
131902,1444.10,3300.00,1467.47,0.0015,0.1792,1.1885,-0.472,-0.405,0.026,0.10,8.63,-0.0002,-0.6094,0.7969,0.227,-0.188,-0.140,0.16,-37.17,0.7620,-0.0109,0.6449,0.564,0.636,-1.633,-49.04,-0.62,0.05,-49.14,-49.19
131916,1448.13,3300.00,1481.98,-0.0059,0.1829,1.1846,0.475,0.175,-0.081,0.11,8.64,-0.0017,-0.6104,0.7998,-0.705,-0.020,0.257,0.15,-37.19,0.7615,-0.0033,0.6504,0.701,1.048,-1.557,-49.03,-0.60,0.05,-49.14,-49.19
131941,1488.42,3300.00,1498.10,-0.0027,0.1843,1.1807,0.704,0.114,-0.188,0.11,8.67,-0.0059,-0.6064,0.8003,0.349,-0.249,-0.140,0.15,-37.18,0.7643,-0.0084,0.6642,0.686,1.598,-0.901,-48.99,-0.59,0.05,-49.14,-49.18
131955,1455.38,3300.00,1474.73,-0.0022,0.1833,1.1841,-0.609,-0.512,0.056,0.10,8.66,-0.0034,-0.6106,0.7991,-0.094,0.026,-0.049,0.15,-37.18,0.7596,-0.0028,0.6643,0.625,1.170,-0.992,-48.97,-0.57,0.05,-49.13,-49.18
131980,1506.15,3300.00,1510.99,-0.0027,0.1799,1.1860,-1.006,-0.771,0.102,0.09,8.63,-0.0044,-0.6099,0.7979,0.104,-0.081,-0.033,0.15,-37.18,0.7639,-0.0034,0.6654,-0.032,-0.112,-0.748,-48.97,-0.57,0.05,-49.13,-49.17
131995,1523.88,3300.00,1523.88,0.0002,0.1799,1.1902,-0.151,-0.145,0.087,0.08,8.63,-0.0015,-0.6101,0.7993,-0.018,-0.127,-0.049,0.15,-37.19,0.7631,0.0051,0.6598,-0.276,-0.769,-0.290,-48.99,-0.55,0.05,-49.12,-49.17
132020,1440.07,3300.00,1456.19,-0.0007,0.1824,1.1812,1.330,0.633,-0.051,0.10,8.67,-0.0034,-0.6079,0.7993,0.211,-0.081,0.074,0.15,-37.18,0.7665,0.0006,0.6539,-0.261,-0.066,0.931,-49.00,-0.55,0.05,-49.12,-49.17
132034,1428.79,3300.00,1457.80,-0.0061,0.1794,1.1755,0.627,0.297,-0.035,0.10,8.68,-0.0039,-0.6079,0.8076,0.517,-0.142,-0.323,0.15,-37.17,0.7606,-0.0051,0.6558,-0.154,0.071,1.374,-49.00,-0.55,0.05,-49.12,-49.17
132059,1498.10,3300.00,1499.71,-0.0002,0.1797,1.1846,-1.617,-0.955,0.285,0.08,8.64,-0.0022,-0.6082,0.8013,-0.552,0.026,0.287,0.15,-37.19,0.7573,-0.0176,0.6661,-0.612,-0.753,1.069,-49.01,-0.58,0.05,-49.12,-49.17
132073,1464.25,3300.00,1490.84,0.0022,0.1775,1.1943,-1.403,-0.741,0.194,0.06,8.61,0.0005,-0.6089,0.8042,-0.002,0.056,0.028,0.15,-37.19,0.7517,-0.0115,0.6559,-0.505,-1.227,0.275,-49.03,-0.60,0.05,-49.12,-49.17
132098,1468.28,3300.00,1482.78,0.0002,0.1807,1.1897,1.360,0.786,-0.188,0.08,8.65,0.0024,-0.6047,0.7988,-0.079,-0.066,0.150,0.14,-37.19,0.7637,-0.0100,0.6473,-0.306,-0.265,-0.076,-49.05,-0.61,0.05,-49.12,-49.17
132113,1502.12,3300.00,1514.21,-0.0032,0.1833,1.1885,1.223,0.771,-0.249,0.09,8.67,-0.0037,-0.6147,0.7974,-0.308,0.148,0.028,0.14,-37.20,0.7610,-0.0093,0.6439,0.365,0.483,-0.259,-49.06,-0.61,0.05,-49.12,-49.17
132137,1445.71,3300.00,1450.55,-0.0042,0.1841,1.1768,-0.655,-0.359,-0.051,0.09,8.65,-0.0056,-0.6116,0.7993,-0.064,0.072,0.196,0.15,-37.21,0.7555,-0.0110,0.6555,0.213,1.399,-0.259,-49.02,-0.61,0.05,-49.12,-49.17
132152,1440.88,3300.00,1452.97,-0.0002,0.1814,1.1868,-1.403,-0.558,0.087,0.08,8.64,-0.0010,-0.6038,0.7957,0.196,-0.005,-0.110,0.14,-37.20,0.7515,-0.0094,0.6620,0.564,0.514,-1.191,-49.01,-0.61,0.05,-49.12,-49.17
132177,1502.12,3300.00,1531.94,-0.0010,0.1802,1.1880,-0.029,-0.008,-0.035,0.08,8.63,-0.0068,-0.6074,0.8025,0.059,0.011,0.165,0.15,-37.20,0.7610,-0.0044,0.6544,-0.093,0.132,-1.114,-49.01,-0.61,0.06,-49.11,-49.17
132191,1465.86,3300.00,1490.04,-0.0020,0.1772,1.1853,0.505,0.343,-0.005,0.08,8.64,-0.0046,-0.6125,0.8027,-0.201,0.072,0.043,0.15,-37.21,0.7667,0.0002,0.6531,0.350,-0.021,-0.962,-49.02,-0.59,0.06,-49.11,-49.17
132216,1457.80,3300.00,1474.73,-0.0024,0.1870,1.1853,0.200,0.099,0.041,0.09,8.65,-0.0010,-0.6074,0.8013,0.440,0.026,-0.033,0.15,-37.19,0.7587,-0.0028,0.6613,0.060,1.262,-0.015,-48.99,-0.58,0.06,-49.11,-49.17
132230,1482.78,3300.00,1527.11,-0.0063,0.1785,1.1914,-0.258,-0.100,0.041,0.09,8.64,-0.0005,-0.6116,0.8064,0.059,-0.020,0.043,0.15,-37.19,0.7607,-0.0037,0.6635,0.472,0.728,0.000,-48.98,-0.57,0.06,-49.11,-49.17
132255,1431.21,3300.00,1461.03,-0.0017,0.1809,1.1892,-0.182,0.068,0.071,0.09,8.64,-0.0020,-0.6111,0.7979,-0.079,0.087,-0.033,0.15,-37.20,0.7565,-0.0049,0.6647,-0.474,-0.448,0.168,-48.98,-0.58,0.06,-49.11,-49.16
132270,1431.21,3300.00,1465.05,-0.0046,0.1782,1.1895,0.047,0.175,0.026,0.10,8.64,-0.0010,-0.6094,0.8008,0.288,0.056,-0.049,0.15,-37.20,0.7585,-0.0063,0.6613,-0.337,-1.410,-0.015,-49.00,-0.58,0.06,-49.11,-49.16
132294,1495.68,3300.00,1524.69,-0.0027,0.1824,1.1824,0.200,0.297,-0.188,0.10,8.65,-0.0046,-0.6113,0.8047,-0.048,0.087,0.043,0.15,-37.20,0.7596,0.0017,0.6478,-0.551,-0.433,0.931,-49.02,-0.58,0.06,-49.11,-49.16
132309,1470.70,3300.00,1513.41,-0.0046,0.1824,1.1821,-0.319,-0.023,0.071,0.11,8.64,-0.0056,-0.6155,0.8062,0.013,0.118,-0.049,0.16,-37.20,0.7606,-0.0098,0.6582,-0.032,-0.143,0.901,-49.03,-0.58,0.06,-49.11,-49.16
132334,1442.49,3300.00,1478.75,-0.0012,0.1785,1.1809,-0.594,-0.283,0.163,0.10,8.63,-0.0044,-0.6086,0.8013,-0.247,0.209,0.303,0.17,-37.21,0.7551,-0.0121,0.6549,-0.398,0.163,0.779,-49.02,-0.60,0.06,-49.11,-49.17
132348,1482.78,3300.00,1494.87,-0.0022,0.1785,1.1877,0.169,0.160,-0.188,0.10,8.63,-0.0046,-0.6135,0.7964,0.120,0.194,0.043,0.17,-37.21,0.7576,-0.0161,0.6584,-0.032,-0.769,-0.183,-49.03,-0.62,0.06,-49.11,-49.17
132373,1457.80,3300.00,1485.20,-0.0020,0.1809,1.1833,0.444,0.404,-0.158,0.11,8.64,-0.0029,-0.6121,0.8040,-0.079,0.041,0.074,0.17,-37.22,0.7583,-0.0063,0.6508,-0.200,-0.143,-0.458,-49.04,-0.62,0.06,-49.11,-49.17
132388,1457.80,3300.00,1460.22,-0.0032,0.1807,1.1819,0.108,0.297,-0.020,0.11,8.64,-0.0054,-0.6079,0.7964,-0.399,0.102,0.272,0.18,-37.23,0.7633,-0.0063,0.6444,0.396,0.315,-0.519,-49.06,-0.62,0.06,-49.12,-49.18
132412,1508.57,3300.00,1522.27,-0.0029,0.1799,1.1807,-0.548,-0.176,0.056,0.11,8.63,-0.0037,-0.6067,0.8040,0.791,0.087,-0.293,0.18,-37.20,0.7562,-0.0079,0.6565,0.228,1.521,-0.092,-49.02,-0.61,0.06,-49.12,-49.18
132427,1523.08,3300.00,1515.82,-0.0024,0.1824,1.1868,-0.487,-0.084,0.117,0.11,8.63,0.0010,-0.6091,0.8008,-0.262,0.087,0.135,0.17,-37.21,0.7546,-0.0099,0.6587,0.579,0.636,-0.641,-49.01,-0.61,0.06,-49.12,-49.18
132451,1439.27,3300.00,1467.47,-0.0029,0.1785,1.1863,-0.044,0.282,-0.020,0.12,8.62,-0.0017,-0.6067,0.8032,0.349,0.056,-0.094,0.17,-37.20,0.7572,-0.0062,0.6609,-0.032,0.147,-0.870,-49.00,-0.61,0.06,-49.12,-49.18
132466,1448.94,3300.00,1482.78,-0.0056,0.1814,1.1853,0.215,0.297,-0.005,0.12,8.63,-0.0020,-0.6091,0.8022,0.272,0.056,0.119,0.17,-37.19,0.7616,-0.0045,0.6571,0.289,-0.188,-1.099,-49.01,-0.60,0.06,-49.12,-49.18
132491,1475.53,3300.00,1501.32,-0.0078,0.1790,1.1863,0.200,0.190,-0.203,0.13,8.63,-0.0015,-0.6067,0.8074,0.165,0.072,0.089,0.17,-37.18,0.7606,0.0011,0.6572,0.060,0.957,0.137,-48.99,-0.59,0.06,-49.12,-49.18
132505,1454.58,3300.00,1467.47,-0.0037,0.1794,1.1855,-0.090,0.114,-0.066,0.14,8.63,-0.0056,-0.6072,0.7979,0.120,0.072,0.074,0.18,-37.18,0.7625,-0.0022,0.6636,0.213,0.468,0.321,-48.98,-0.57,0.06,-49.12,-49.18
132520,1455.38,3300.00,1455.38,-0.0012,0.1826,1.1836,-0.090,-0.039,-0.035,0.13,8.63,0.0005,-0.6082,0.7996,-0.247,0.148,0.135,0.18,-37.19,0.7576,-0.0101,0.6685,-0.337,0.270,0.702,-48.97,-0.59,0.06,-49.12,-49.17
132545,1514.21,3300.00,1543.22,-0.0024,0.1799,1.1853,-0.182,0.053,-0.066,0.14,8.63,-0.0044,-0.6106,0.8032,0.639,0.041,-0.110,0.18,-37.17,0.7605,-0.0084,0.6621,-0.352,-1.364,0.336,-49.00,-0.60,0.05,-49.12,-49.17
132560,1507.77,3300.00,1508.57,-0.0054,0.1829,1.1909,-0.029,0.007,-0.081,0.14,8.63,-0.0022,-0.6062,0.8020,0.196,0.011,0.104,0.18,-37.17,0.7625,-0.0092,0.6521,-0.719,-1.181,0.611,-49.03,-0.61,0.05,-49.12,-49.18
132584,1432.01,3300.00,1445.71,0.0010,0.1802,1.1890,-0.136,0.038,0.117,0.14,8.63,-0.0056,-0.6077,0.7876,-0.079,0.087,0.058,0.18,-37.18,0.7633,-0.0116,0.6497,-0.077,-0.387,0.718,-49.05,-0.62,0.05,-49.13,-49.18
132599,1469.89,3300.00,1494.87,-0.0020,0.1802,1.1875,0.185,0.084,-0.020,0.14,8.63,-0.0020,-0.6084,0.7979,0.410,0.118,-0.003,0.18,-37.18,0.7584,-0.0122,0.6534,-0.352,0.483,0.977,-49.04,-0.64,0.05,-49.13,-49.18
132624,1493.26,3300.00,1496.48,-0.0054,0.1838,1.1804,0.307,-0.039,-0.203,0.14,8.64,-0.0034,-0.6101,0.8064,0.211,0.087,0.165,0.19,-37.17,0.7584,-0.0172,0.6538,0.243,-0.188,-0.275,-49.05,-0.65,0.05,-49.13,-49.19
132638,1462.64,3300.00,1459.41,-0.0015,0.1826,1.1873,-0.212,-0.100,-0.112,0.13,8.64,-0.0049,-0.6089,0.8103,0.257,-0.081,0.058,0.19,-37.16,0.7607,-0.0162,0.6510,-0.169,0.132,-0.565,-49.06,-0.66,0.05,-49.14,-49.19
132663,1502.93,3300.00,1520.66,-0.0056,0.1836,1.1887,-0.273,-0.100,-0.051,0.13,8.63,-0.0061,-0.6101,0.8076,-0.155,-0.020,0.089,0.19,-37.17,0.7614,-0.0082,0.6494,0.426,0.208,-1.084,-49.06,-0.66,0.05,-49.14,-49.20
132677,1507.77,3300.00,1523.88,-0.0012,0.1816,1.1831,0.017,-0.054,0.071,0.13,8.64,-0.0029,-0.6069,0.7993,0.181,0.118,-0.003,0.19,-37.16,0.7626,-0.0104,0.6530,0.243,1.155,-0.595,-49.05,-0.66,0.05,-49.15,-49.20
132702,1455.38,3300.00,1477.95,-0.0073,0.1816,1.1909,0.093,0.099,-0.051,0.14,8.64,-0.0063,-0.6101,0.8005,-0.201,-0.005,0.165,0.19,-37.17,0.7626,-0.0090,0.6626,0.625,1.048,-0.779,-49.03,-0.64,0.05,-49.15,-49.20
132717,1465.05,3300.00,1477.95,-0.0073,0.1799,1.1890,0.047,-0.069,0.041,0.14,8.64,-0.0015,-0.6064,0.7974,-0.186,0.148,0.104,0.19,-37.18,0.7588,-0.0083,0.6632,0.167,0.819,-0.580,-49.01,-0.64,0.05,-49.15,-49.20
132741,1491.65,3300.00,1500.51,-0.0049,0.1843,1.1814,-0.075,-0.039,0.026,0.14,8.64,-0.0039,-0.6067,0.8042,0.349,-0.020,-0.201,0.19,-37.16,0.7631,-0.0052,0.6617,0.152,-0.417,-0.717,-49.02,-0.64,0.05,-49.15,-49.20
132756,1480.37,3300.00,1480.37,-0.0042,0.1809,1.1816,-0.166,-0.069,-0.097,0.14,8.64,-0.0024,-0.6089,0.8081,-0.231,-0.005,0.089,0.19,-37.16,0.7599,-0.0038,0.6588,-0.169,-0.097,0.000,-49.03,-0.63,0.05,-49.15,-49.20
132781,1494.07,3300.00,1510.99,-0.0039,0.1792,1.1848,0.078,0.038,0.026,0.15,8.64,-0.0002,-0.6106,0.8013,-0.002,0.011,-0.049,0.19,-37.17,0.7628,-0.0032,0.6531,0.045,-0.082,0.489,-49.04,-0.62,0.05,-49.15,-49.20
132795,1512.60,3300.00,1531.14,-0.0012,0.1804,1.1819,-0.029,0.007,-0.035,0.14,8.64,-0.0029,-0.6079,0.8020,0.410,0.041,-0.094,0.19,-37.16,0.7622,-0.0110,0.6600,-0.337,0.056,0.901,-49.04,-0.64,0.05,-49.15,-49.21
132820,1457.80,3300.00,1471.50,-0.0034,0.1787,1.1892,-0.136,-0.054,-0.005,0.14,8.64,0.0002,-0.6096,0.7998,-0.186,0.240,0.058,0.19,-37.17,0.7607,-0.0131,0.6632,-0.245,-0.769,0.260,-49.05,-0.65,0.05,-49.16,-49.21
132835,1446.52,3300.00,1469.89,-0.0020,0.1758,1.1809,0.246,0.190,-0.020,0.14,8.64,-0.0020,-0.6079,0.8020,-0.216,0.148,0.089,0.19,-37.17,0.7561,-0.0101,0.6530,-0.444,-0.692,0.305,-49.07,-0.66,0.05,-49.16,-49.21
132860,1519.85,3300.00,1509.38,-0.0049,0.1812,1.1858,0.444,0.206,-0.112,0.15,8.65,-0.0034,-0.6111,0.7979,0.318,-0.035,-0.293,0.19,-37.17,0.7643,-0.0098,0.6500,-0.001,-0.723,0.199,-49.09,-0.67,0.05,-49.17,-49.22
132874,1494.87,3300.00,1498.10,-0.0042,0.1829,1.1912,-1.556,-0.863,0.056,0.14,8.63,-0.0022,-0.6140,0.8108,0.761,-0.127,-0.247,0.19,-37.16,0.7693,-0.0190,0.6531,-0.108,0.483,0.305,-49.10,-0.69,0.05,-49.17,-49.22
132899,1475.53,3300.00,1490.04,0.0010,0.1709,1.1875,-1.266,-0.604,0.148,0.12,8.59,-0.0042,-0.6089,0.7959,-1.315,0.301,0.593,0.20,-37.20,0.7583,-0.0129,0.6582,0.381,0.850,-0.962,-49.08,-0.69,0.05,-49.17,-49.23
132913,1508.57,3300.00,1516.63,-0.0015,0.1772,1.1885,2.139,1.167,-0.310,0.14,8.62,-0.0037,-0.6064,0.7935,0.120,0.026,0.028,0.20,-37.20,0.7594,-0.0082,0.6543,0.182,0.666,-1.114,-49.07,-0.69,0.05,-49.18,-49.23
132938,1448.13,3300.00,1461.83,-0.0061,0.1870,1.1736,3.238,1.641,-0.478,0.18,8.71,-0.0037,-0.6035,0.7976,0.227,0.026,-0.003,0.20,-37.19,0.7616,-0.0012,0.6516,0.259,-0.036,-0.519,-49.08,-0.67,0.05,-49.18,-49.23
132953,1431.21,3300.00,1457.00,-0.0063,0.1870,1.1736,-0.411,-0.313,0.163,0.18,8.71,-0.0071,-0.6074,0.8008,-0.094,-0.020,0.119,0.20,-37.19,0.7607,-0.0038,0.6512,0.228,0.407,0.229,-49.08,-0.66,0.05,-49.19,-49.23
132977,1520.66,3300.00,1530.33,-0.0027,0.1721,1.1938,-5.006,-2.604,0.682,0.11,8.58,-0.0046,-0.6064,0.8083,0.165,0.026,-0.140,0.20,-37.18,0.7617,-0.0171,0.6611,0.075,0.315,0.428,-49.07,-0.67,0.05,-49.19,-49.24
132992,1502.12,3300.00,1515.82,0.0024,0.1763,1.1995,-2.548,-1.306,0.361,0.09,8.53,-0.0042,-0.6121,0.8027,-0.522,0.118,0.242,0.21,-37.19,0.7595,-0.0155,0.6646,-0.245,-0.188,0.031,-49.07,-0.69,0.06,-49.19,-49.24
133017,1459.41,3300.00,1481.17,-0.0034,0.1790,1.1941,4.414,2.542,-0.768,0.15,8.64,0.0015,-0.6077,0.8005,0.425,0.011,-0.155,0.20,-37.18,0.7651,-0.0063,0.6514,0.167,-0.402,-0.992,-49.09,-0.68,0.05,-49.19,-49.24
133031,1481.17,3300.00,1508.57,-0.0042,0.1841,1.1733,4.688,2.419,-0.539,0.19,8.71,-0.0044,-0.6047,0.7966,-0.430,0.011,0.119,0.20,-37.19,0.7607,0.0026,0.6479,0.136,0.483,-0.504,-49.09,-0.66,0.05,-49.20,-49.25
133056,1459.41,3300.00,1482.78,-0.0098,0.1851,1.1785,-2.105,-1.031,0.346,0.17,8.67,-0.0042,-0.6038,0.7996,0.654,-0.020,-0.155,0.20,-37.17,0.7606,-0.0057,0.6615,0.320,0.911,0.718,-49.07,-0.65,0.05,-49.20,-49.25
133071,1448.94,3300.00,1469.08,-0.0078,0.1831,1.1909,-4.594,-2.527,0.636,0.14,8.60,-0.0071,-0.6069,0.8079,0.456,-0.142,-0.140,0.20,-37.16,0.7550,-0.0099,0.6707,-0.138,0.224,0.901,-49.05,-0.66,0.05,-49.20,-49.25
133095,1533.55,3300.00,1527.11,-0.0024,0.1726,1.1926,-0.915,-0.649,0.239,0.12,8.57,-0.0066,-0.6099,0.8054,-0.460,0.041,0.043,0.21,-37.17,0.7596,-0.0179,0.6592,-0.383,-1.379,-0.046,-49.08,-0.68,0.05,-49.20,-49.25
133110,1513.41,3300.00,1528.72,-0.0029,0.1777,1.1926,2.719,1.290,-0.478,0.14,8.61,0.0002,-0.6106,0.8047,0.501,-0.035,-0.094,0.20,-37.16,0.7639,-0.0105,0.6494,-0.535,-1.043,-0.259,-49.11,-0.70,0.05,-49.20,-49.26
133135,1429.60,3300.00,1477.95,-0.0071,0.1848,1.1772,2.139,1.106,-0.234,0.17,8.67,-0.0007,-0.6072,0.8030,-0.170,0.087,0.165,0.20,-37.16,0.7651,-0.0051,0.6455,0.411,0.728,-0.290,-49.11,-0.68,0.05,-49.21,-49.26
133149,1456.19,3300.00,1487.62,-0.0059,0.1887,1.1692,-0.792,-0.558,-0.005,0.17,8.67,-0.0020,-0.6104,0.8010,0.043,-0.020,-0.125,0.20,-37.17,0.7561,-0.0057,0.6520,0.381,1.476,0.107,-49.09,-0.67,0.05,-49.21,-49.26
133174,1465.86,3300.00,1494.87,-0.0029,0.1775,1.1921,-2.624,-1.321,0.071,0.13,8.60,-0.0046,-0.6050,0.8052,-0.293,-0.035,0.211,0.20,-37.17,0.7559,-0.0179,0.6641,0.274,0.880,-0.534,-49.06,-0.68,0.05,-49.21,-49.26
133188,1439.27,3300.00,1464.25,-0.0056,0.1748,1.1919,-0.090,-0.023,-0.188,0.14,8.59,-0.0088,-0.6116,0.8037,-0.903,0.118,0.440,0.21,-37.18,0.7523,-0.0093,0.6649,0.136,-0.112,-1.175,-49.05,-0.68,0.05,-49.21,-49.26
133213,1494.87,3300.00,1516.63,-0.0115,0.1826,1.1816,2.124,1.015,-0.051,0.17,8.65,-0.0037,-0.6143,0.8022,0.959,-0.203,-0.522,0.20,-37.17,0.7744,-0.0052,0.6488,0.167,-1.028,-0.885,-49.09,-0.68,0.05,-49.21,-49.26
133228,1506.15,3300.00,1518.24,-0.0103,0.1807,1.1782,-0.579,-0.359,0.117,0.17,8.64,-0.0042,-0.6111,0.8044,0.059,-0.066,0.165,0.20,-37.17,0.7723,-0.0037,0.6433,-0.291,0.361,0.351,-49.11,-0.67,0.05,-49.22,-49.27
133252,1440.88,3300.00,1464.25,-0.0022,0.1799,1.1914,-1.953,-1.168,0.285,0.14,8.59,-0.0083,-0.6099,0.8057,0.349,-0.020,-0.201,0.21,-37.16,0.7596,-0.0112,0.6593,0.579,1.521,0.412,-49.07,-0.67,0.05,-49.22,-49.27
133267,1459.41,3300.00,1471.50,0.0010,0.1804,1.1848,0.383,0.099,-0.035,0.14,8.60,-0.0032,-0.6074,0.8052,0.562,0.056,-0.247,0.21,-37.15,0.7517,-0.0161,0.6735,0.228,0.850,0.183,-49.04,-0.68,0.05,-49.21,-49.27
133292,1500.51,3300.00,1516.63,-0.0063,0.1821,1.1785,2.643,1.305,-0.387,0.17,8.67,-0.0046,-0.6086,0.8010,-0.476,0.026,0.226,0.21,-37.16,0.7545,-0.0073,0.6603,-0.429,-1.563,-0.656,-49.08,-0.69,0.05,-49.22,-49.27
133306,1454.58,3300.00,1483.59,-0.0098,0.1882,1.1741,0.795,0.358,-0.081,0.18,8.69,-0.0044,-0.6082,0.7942,0.898,-0.188,-0.354,0.21,-37.15,0.7628,-0.0017,0.6528,-0.322,-1.242,-0.412,-49.10,-0.68,0.05,-49.22,-49.27
133331,1474.73,3300.00,1509.38,-0.0063,0.1841,1.1843,-3.357,-1.794,0.514,0.14,8.61,-0.0012,-0.6089,0.8047,-0.751,0.041,0.211,0.21,-37.17,0.7683,-0.0071,0.6472,0.106,0.895,0.626,-49.09,-0.68,0.05,-49.22,-49.27
133346,1518.24,3300.00,1528.72,-0.0020,0.1755,1.1960,-2.411,-1.123,0.346,0.13,8.57,-0.0093,-0.6094,0.7961,-0.338,0.102,0.348,0.21,-37.18,0.7578,-0.0120,0.6556,-0.016,1.430,1.008,-49.08,-0.68,0.05,-49.22,-49.27
133370,1454.58,3300.00,1458.61,-0.0007,0.1814,1.1870,2.902,1.549,-0.295,0.16,8.64,0.0005,-0.6111,0.8035,0.669,-0.035,-0.384,0.21,-37.16,0.7551,-0.0167,0.6666,0.136,-0.433,-0.382,-49.08,-0.70,0.05,-49.22,-49.27
133385,1435.24,3300.00,1465.86,-0.0005,0.1851,1.1802,2.444,1.259,-0.463,0.18,8.68,-0.0049,-0.6116,0.8057,-0.720,0.194,0.242,0.21,-37.18,0.7589,-0.0148,0.6588,-0.138,-0.631,-1.343,-49.08,-0.71,0.05,-49.22,-49.28
133410,1510.99,3300.00,1539.19,-0.0039,0.1814,1.1758,-1.541,-0.695,0.087,0.16,8.65,-0.0012,-0.6067,0.8018,0.242,0.087,-0.033,0.21,-37.17,0.7667,0.0011,0.6400,0.426,-0.021,-1.023,-49.11,-0.68,0.05,-49.23,-49.28
133424,1498.10,3300.00,1508.57,-0.0061,0.1794,1.1851,-2.502,-1.260,0.056,0.14,8.61,-0.0044,-0.6064,0.8054,0.822,-0.157,-0.186,0.21,-37.15,0.7661,-0.0018,0.6489,0.488,1.124,0.015,-49.10,-0.67,0.05,-49.23,-49.28
133449,1469.89,3300.00,1493.26,-0.0063,0.1780,1.1895,0.322,0.129,-0.081,0.15,8.62,-0.0037,-0.6064,0.8003,-0.522,0.148,0.180,0.21,-37.17,0.7584,-0.0126,0.6681,0.442,0.972,0.473,-49.07,-0.66,0.05,-49.23,-49.28
133463,1505.35,3300.00,1533.55,-0.0063,0.1772,1.1890,1.895,0.908,-0.188,0.17,8.64,-0.0054,-0.6104,0.8062,0.028,-0.127,-0.171,0.21,-37.16,0.7585,-0.0151,0.6715,-0.169,0.025,0.321,-49.06,-0.68,0.05,-49.23,-49.28
133488,1445.71,3300.00,1470.70,-0.0039,0.1838,1.1853,0.414,0.145,0.056,0.17,8.65,-0.0005,-0.6121,0.8008,-0.002,0.011,-0.033,0.21,-37.17,0.7590,-0.0088,0.6541,-0.322,-1.654,-0.595,-49.10,-0.69,0.05,-49.23,-49.28
133503,1455.38,3300.00,1461.83,-0.0017,0.1833,1.1860,-1.434,-0.939,0.255,0.16,8.64,-0.0017,-0.6057,0.7959,0.089,-0.050,-0.140,0.21,-37.17,0.7693,-0.0057,0.6423,-0.245,-0.814,-0.397,-49.13,-0.69,0.05,-49.23,-49.29
133528,1512.60,3300.00,1534.36,0.0027,0.1785,1.1882,-0.731,-0.359,0.194,0.14,8.62,-0.0017,-0.6079,0.7991,-0.399,-0.066,0.104,0.20,-37.18,0.7593,-0.0020,0.6478,0.625,1.155,0.260,-49.11,-0.66,0.05,-49.24,-49.29
133542,1519.05,3300.00,1526.30,-0.0020,0.1799,1.1809,1.131,0.633,-0.097,0.15,8.63,-0.0046,-0.6096,0.7993,0.288,-0.111,0.074,0.20,-37.18,0.7577,-0.0165,0.6636,0.335,1.308,0.489,-49.09,-0.67,0.05,-49.24,-49.29
133567,1455.38,3300.00,1499.71,-0.0098,0.1833,1.1794,0.750,0.313,-0.081,0.16,8.66,-0.0042,-0.6084,0.7969,0.120,-0.111,-0.003,0.20,-37.18,0.7559,-0.0184,0.6660,0.228,-0.555,-0.733,-49.09,-0.69,0.05,-49.24,-49.29
133581,1482.78,3300.00,1506.15,-0.0046,0.1812,1.1821,-1.174,-0.420,0.041,0.16,8.64,-0.0044,-0.6135,0.8059,-0.827,0.118,0.196,0.20,-37.20,0.7616,-0.0125,0.6567,-0.215,-0.799,-1.053,-49.11,-0.70,0.05,-49.24,-49.29
133606,1475.53,3300.00,1477.95,-0.0012,0.1799,1.1851,-1.083,-0.680,0.087,0.14,8.61,-0.0042,-0.6140,0.8010,0.425,-0.096,-0.125,0.20,-37.19,0.7661,0.0007,0.6398,0.274,-0.265,-0.824,-49.13,-0.67,0.05,-49.24,-49.29
133621,1443.30,3300.00,1457.00,-0.0005,0.1775,1.1902,0.536,0.251,-0.295,0.14,8.62,0.0024,-0.6084,0.8059,0.196,-0.020,0.074,0.19,-37.18,0.7651,-0.0021,0.6482,0.335,1.308,0.061,-49.13,-0.66,0.05,-49.24,-49.30
133645,1510.99,3300.00,1532.75,-0.0105,0.1858,1.1843,1.879,0.984,-0.142,0.17,8.67,-0.0002,-0.6082,0.8047,-0.155,0.011,0.135,0.19,-37.19,0.7574,-0.0104,0.6646,0.503,1.002,0.275,-49.09,-0.65,0.05,-49.24,-49.29
133660,1536.78,3300.00,1544.03,-0.0061,0.1831,1.1807,0.398,0.221,0.071,0.18,8.68,-0.0039,-0.6113,0.8025,0.150,-0.111,-0.140,0.19,-37.19,0.7531,-0.0145,0.6693,-0.138,0.025,0.199,-49.08,-0.67,0.05,-49.25,-49.29
133685,1444.10,3300.00,1481.17,0.0005,0.1790,1.1904,-2.105,-1.291,0.331,0.14,8.63,-0.0022,-0.6113,0.7961,-0.018,-0.081,-0.033,0.19,-37.19,0.7588,-0.0073,0.6556,-0.093,-1.563,-0.717,-49.12,-0.67,0.05,-49.25,-49.29
133699,1468.28,3300.00,1495.68,0.0042,0.1807,1.1907,-1.403,-0.894,0.148,0.12,8.61,-0.0027,-0.6072,0.8049,-0.033,0.041,-0.049,0.19,-37.19,0.7682,-0.0023,0.6492,-0.184,-0.692,-0.259,-49.14,-0.66,0.05,-49.25,-49.30
133724,1445.71,3300.00,1479.56,-0.0049,0.1809,1.1853,1.482,0.816,-0.142,0.14,8.64,-0.0034,-0.6086,0.8005,-0.338,-0.142,0.135,0.18,-37.20,0.7616,-0.0078,0.6482,0.381,0.987,0.397,-49.13,-0.65,0.05,-49.25,-49.30
133738,1446.52,3300.00,1465.05,-0.0049,0.1814,1.1807,1.696,0.755,-0.112,0.16,8.67,-0.0017,-0.6123,0.8127,0.043,-0.081,-0.049,0.18,-37.20,0.7585,-0.0125,0.6614,0.274,1.292,0.290,-49.10,-0.66,0.05,-49.25,-49.30
133763,1494.87,3300.00,1531.94,-0.0056,0.1812,1.1912,-1.098,-0.710,0.148,0.14,8.64,-0.0034,-0.6082,0.7927,-0.323,0.041,-0.003,0.18,-37.21,0.7568,-0.0145,0.6643,0.182,-0.433,-0.901,-49.11,-0.66,0.05,-49.25,-49.30
133778,1496.48,3300.00,1526.30,-0.0022,0.1804,1.1777,-1.678,-1.000,0.331,0.13,8.62,-0.0037,-0.6104,0.8025,-0.354,-0.020,0.074,0.18,-37.22,0.7616,-0.0061,0.6556,-0.154,-0.677,-1.038,-49.12,-0.66,0.05,-49.25,-49.30
133803,1429.60,3300.00,1447.33,-0.0024,0.1797,1.1926,0.322,0.175,-0.142,0.13,8.63,-0.0054,-0.6074,0.7991,0.349,-0.005,-0.064,0.18,-37.21,0.7682,0.0006,0.6449,0.136,0.208,-0.305,-49.13,-0.65,0.05,-49.25,-49.30
133817,1443.30,3300.00,1482.78,-0.0037,0.1841,1.1833,1.406,0.709,-0.112,0.14,8.65,-0.0032,-0.6089,0.8059,-0.094,-0.096,-0.018,0.18,-37.21,0.7644,-0.0046,0.6483,0.228,1.079,0.458,-49.13,-0.64,0.05,-49.25,-49.30
133842,1501.32,3300.00,1508.57,-0.0017,0.1812,1.1768,0.230,0.022,0.041,0.14,8.66,-0.0010,-0.6086,0.8059,0.272,0.041,-0.079,0.18,-37.20,0.7576,-0.0156,0.6681,0.228,0.468,0.290,-49.11,-0.65,0.05,-49.25,-49.30
133856,1467.47,3300.00,1470.70,-0.0063,0.1836,1.1829,-1.235,-0.634,0.285,0.14,8.64,-0.0017,-0.6096,0.8025,-0.018,0.087,-0.003,0.18,-37.20,0.7532,-0.0139,0.6678,-0.200,-0.402,-0.229,-49.10,-0.66,0.05,-49.25,-49.30
133881,1482.78,3300.00,1500.51,-0.0010,0.1797,1.1943,-0.563,-0.313,-0.020,0.13,8.63,-0.0042,-0.6108,0.8000,0.104,0.087,-0.049,0.18,-37.20,0.7648,-0.0079,0.6493,-0.108,-0.784,-0.840,-49.13,-0.66,0.05,-49.25,-49.30
133896,1529.52,3300.00,1535.97,-0.0015,0.1831,1.1880,0.795,0.313,-0.295,0.13,8.64,-0.0073,-0.6067,0.8040,-0.018,-0.005,-0.064,0.19,-37.19,0.7639,0.0006,0.6451,0.045,-0.051,-0.244,-49.14,-0.65,0.05,-49.25,-49.30
133920,1454.58,3300.00,1457.80,-0.0081,0.1819,1.1865,0.337,0.160,-0.066,0.14,8.65,-0.0054,-0.6140,0.7983,-0.079,-0.066,0.043,0.19,-37.20,0.7627,-0.0095,0.6610,0.350,0.911,0.367,-49.12,-0.64,0.05,-49.25,-49.30
133935,1431.21,3300.00,1469.08,-0.0061,0.1792,1.1851,-0.838,-0.512,0.117,0.13,8.64,-0.0039,-0.6094,0.8015,0.165,0.056,0.013,0.19,-37.20,0.7544,-0.0103,0.6683,0.045,0.926,0.046,-49.09,-0.65,0.05,-49.25,-49.30
133960,1510.18,3300.00,1538.39,-0.0007,0.1804,1.1899,-0.548,-0.237,0.010,0.13,8.62,-0.0046,-0.6096,0.7996,-0.216,-0.020,0.135,0.19,-37.21,0.7595,-0.0135,0.6598,0.045,-0.876,-0.840,-49.11,-0.66,0.05,-49.25,-49.30
133974,1488.42,3300.00,1509.38,-0.0032,0.1831,1.1882,0.337,0.190,-0.127,0.13,8.63,-0.0022,-0.6096,0.8010,0.211,0.011,-0.171,0.19,-37.21,0.7617,-0.0039,0.6521,-0.291,-0.830,-0.595,-49.13,-0.66,0.05,-49.25,-49.30
133999,1478.75,3300.00,1482.78,-0.0037,0.1809,1.1821,0.490,0.145,-0.066,0.13,8.65,-0.0037,-0.6128,0.7993,0.013,0.011,0.089,0.19,-37.21,0.7687,-0.0034,0.6448,0.136,0.315,0.046,-49.14,-0.65,0.05,-49.25,-49.30
134013,1510.99,3300.00,1520.66,-0.0017,0.1790,1.1794,-0.426,-0.268,0.026,0.13,8.64,-0.0046,-0.6123,0.8008,0.135,-0.050,0.043,0.19,-37.22,0.7637,-0.0063,0.6541,0.091,1.262,0.596,-49.13,-0.64,0.05,-49.25,-49.30
134038,1443.30,3300.00,1458.61,-0.0029,0.1782,1.1870,-0.640,-0.420,0.071,0.12,8.62,-0.0049,-0.6101,0.8020,0.288,-0.005,-0.018,0.19,-37.21,0.7605,-0.0137,0.6696,0.091,0.300,-0.168,-49.11,-0.65,0.05,-49.25,-49.30
134053,1444.10,3300.00,1444.10,-0.0032,0.1785,1.1880,0.200,0.145,0.117,0.12,8.62,-0.0044,-0.6091,0.8047,0.059,0.026,0.104,0.20,-37.21,0.7550,-0.0127,0.6660,-0.200,-0.448,-0.412,-49.11,-0.66,0.05,-49.25,-49.30
134077,1505.35,3300.00,1533.55,-0.0046,0.1829,1.1775,1.528,0.832,-0.219,0.14,8.66,-0.0020,-0.6064,0.7969,0.013,-0.111,0.043,0.19,-37.21,0.7585,-0.0034,0.6523,-0.047,-0.524,-0.336,-49.12,-0.66,0.05,-49.25,-49.31
134092,1495.68,3300.00,1504.54,-0.0066,0.1829,1.1782,0.643,0.267,-0.158,0.15,8.68,-0.0071,-0.6091,0.7976,0.074,-0.157,-0.094,0.19,-37.21,0.7565,-0.0044,0.6534,0.029,0.254,0.260,-49.12,-0.65,0.05,-49.25,-49.31
134117,1442.49,3300.00,1482.78,-0.0037,0.1838,1.1897,-2.121,-1.123,0.209,0.12,8.63,-0.0042,-0.6091,0.8091,-0.094,-0.005,0.013,0.19,-37.21,0.8324,0.1207,0.6453,-40.459,-16.524,-57.511,-49.57,-1.41,0.05,-49.28,-49.34
134131,1481.98,3300.00,1496.48,0.0002,0.1807,1.1975,-1.800,-1.168,0.071,0.11,8.60,0.0007,-0.6123,0.8005,-0.125,0.056,-0.018,0.19,-37.21,1.1064,0.1770,0.4811,15.800,-37.486,-27.496,-50.42,-0.75,0.06,-49.37,-49.43
134156,1477.14,3300.00,1449.74,-0.0022,0.1809,1.1865,1.223,0.633,-0.448,0.12,8.63,-0.0029,-0.6121,0.7986,-0.125,0.118,0.135,0.19,-37.22,0.7623,-0.0929,0.5612,-15.955,4.972,-30.046,-50.36,-1.31,0.06,-49.45,-49.51
134171,1422.34,3300.00,1457.00,-0.0049,0.1809,1.1775,2.063,1.183,-0.356,0.14,8.66,-0.0024,-0.6096,0.7966,-0.170,-0.035,0.089,0.19,-37.23,0.5428,-0.0367,0.8339,8.839,-21.059,-65.969,-50.31,-1.21,0.06,-49.52,-49.58
134195,1524.69,3300.00,1528.72,-0.0078,0.1807,1.1738,0.246,0.328,0.087,0.15,8.67,-0.0002,-0.6101,0.7988,0.211,0.011,0.074,0.19,-37.23,1.1023,1.2068,-0.3102,68.930,-17.700,-31.603,-50.56,2.58,0.06,-49.60,-49.66
134210,1501.32,3300.00,1534.36,-0.0022,0.1802,1.1824,-1.968,-0.710,0.224,0.14,8.64,-0.0071,-0.6077,0.8010,0.028,0.224,0.013,0.19,-37.22,0.6188,0.2949,0.8756,-6.077,-30.280,-12.672,-50.66,2.81,0.06,-49.69,-49.74
134235,1435.24,3300.00,1462.64,-0.0037,0.1799,1.1890,-1.205,-0.451,0.026,0.13,8.61,-0.0032,-0.6111,0.8037,0.135,0.148,0.074,0.20,-37.22,0.6980,0.0509,0.6741,86.762,-0.830,-52.244,-50.59,4.94,0.06,-49.76,-49.81
134249,1465.86,3300.00,1495.68,-0.0007,0.1804,1.1946,1.147,0.374,-0.280,0.13,8.63,-0.0056,-0.6150,0.8037,0.242,0.240,-0.064,0.20,-37.22,0.7911,-0.0288,0.7733,115.846,-14.860,-77.954,-50.70,6.47,0.06,-49.83,-49.89
134274,1483.59,3300.00,1478.75,-0.0022,0.1836,1.1831,1.360,0.908,-0.188,0.16,8.67,0.0000,-0.6125,0.8079,0.135,0.102,0.058,0.20,-37.22,0.9070,-0.0347,0.8549,65.388,-46.982,-68.473,-51.76,7.88,0.06,-49.98,-50.04
134289,1456.19,3300.00,1455.38,-0.0063,0.1824,1.1807,-0.044,0.007,0.224,0.16,8.67,0.0027,-0.6062,0.7996,-0.064,0.056,0.180,0.20,-37.22,0.8877,0.1805,1.3689,-171.772,-75.501,-51.420,-52.46,5.43,0.06,-50.16,-50.22
134313,1509.38,3300.00,1534.36,-0.0037,0.1816,1.1873,-1.403,-0.619,0.163,0.14,8.63,-0.0007,-0.6111,0.8044,-0.140,-0.127,0.165,0.19,-37.22,1.0922,0.5334,-0.2632,-140.856,-135.166,54.076,-55.91,4.23,0.05,-50.58,-50.63
134328,1519.05,3300.00,1535.16,-0.0073,0.1768,1.1890,-0.380,-0.420,0.056,0.14,8.62,-0.0002,-0.6094,0.8008,0.104,-0.005,0.043,0.19,-37.22,0.4078,0.0361,0.4202,34.213,-110.295,37.893,-57.26,4.74,0.05,-51.05,-51.11
134353,1435.24,3300.00,1457.80,-0.0056,0.1846,1.1833,0.505,0.374,-0.081,0.15,8.64,-0.0085,-0.6104,0.7964,0.196,0.056,-0.110,0.19,-37.22,0.8910,0.1656,0.6610,-20.581,-30.830,-54.595,-57.92,4.43,0.05,-51.55,-51.60
134367,1454.58,3300.00,1456.19,-0.0039,0.1816,1.1804,0.185,-0.115,-0.020,0.15,8.65,-0.0007,-0.6130,0.8103,0.150,-0.050,-0.140,0.19,-37.22,0.8616,0.1847,0.5093,6.320,-14.372,-60.366,-58.12,4.83,0.05,-52.02,-52.07
134392,1497.29,3300.00,1502.93,0.0002,0.1794,1.1802,-1.067,-0.573,-0.035,0.14,8.62,-0.0051,-0.6079,0.8057,-0.109,0.301,0.074,0.20,-37.22,0.8409,0.3929,0.5575,-35.253,-118.967,56.977,-60.86,4.58,0.05,-52.64,-52.70
134406,1461.83,3300.00,1481.98,-0.0034,0.1787,1.1907,-0.426,-0.237,0.407,0.13,8.61,-0.0076,-0.6072,0.7979,0.074,0.102,0.242,0.21,-37.22,0.8197,0.1040,0.5256,-104.764,-119.059,76.565,-62.47,3.22,0.05,-53.34,-53.40
134431,1492.45,3300.00,1510.18,-0.0012,0.1824,1.1895,1.330,0.771,-0.280,0.15,8.65,-0.0015,-0.6067,0.7959,0.379,0.194,-0.033,0.21,-37.21,0.9449,0.1804,0.4751,-48.734,-107.761,19.496,-65.08,2.39,0.05,-54.17,-54.23
134446,1519.05,3300.00,1532.75,-0.0010,0.1794,1.1787,1.101,0.526,-0.280,0.16,8.66,-0.0059,-0.6057,0.8057,-0.094,0.194,0.257,0.21,-37.20,1.0356,0.1803,0.5477,-47.085,-100.845,27.786,-66.42,2.03,0.05,-55.04,-55.10
134471,1444.91,3300.00,1684.25,-0.0034,0.1809,1.1880,-1.312,-0.680,0.361,0.14,8.63,0.0012,-0.6052,0.7974,0.303,0.102,-0.323,0.21,-37.20,0.9132,0.0607,0.3577,-88.169,-132.937,59.069,-69.69,0.04,0.06,-56.08,-56.13
134485,1578.68,3300.00,1574.65,-0.0029,0.1777,1.1821,-1.113,-0.848,-0.081,0.13,8.61,-0.0024,-0.6074,0.8054,0.043,0.102,0.058,0.21,-37.19,0.8933,0.1504,0.2899,-75.451,-155.043,62.962,-71.90,-0.48,0.06,-57.19,-57.25
134510,1507.77,3300.00,1547.25,-0.0088,0.1873,1.1841,0.521,0.236,-0.448,0.14,8.63,-0.0015,-0.6113,0.8047,0.120,0.240,0.119,0.21,-37.19,0.9211,0.1388,0.2214,-32.383,-121.624,50.550,-74.90,-0.61,0.06,-58.44,-58.50
134524,1495.68,3300.00,1523.88,0.0051,0.1799,1.1863,0.475,0.007,-0.600,0.13,8.64,-0.0088,-0.6021,0.8108,-0.354,0.469,0.730,0.23,-37.18,0.8967,0.0729,0.2180,-8.627,-104.646,45.557,-76.39,-0.35,0.06,-59.71,-59.77
134549,1490.04,3300.00,1504.54,-0.0037,0.1797,1.1770,-0.686,-0.710,-0.402,0.12,8.62,-0.0056,-0.6030,0.8069,-0.018,0.652,0.486,0.24,-37.18,0.9937,-0.0707,0.1682,32.259,-104.601,30.748,-79.02,-0.01,0.07,-61.07,-61.13
134564,1477.95,3300.00,1487.62,0.0000,0.1787,1.1882,-1.495,-0.527,-0.188,0.11,8.60,-0.0098,-0.6069,0.8008,0.517,0.560,0.104,0.26,-37.17,0.8541,-0.0491,0.0249,20.060,-83.486,58.962,-80.36,-0.99,0.07,-62.43,-62.50
134589,1485.20,3300.00,1496.48,0.0015,0.1758,1.1877,-1.602,0.160,0.392,0.11,8.56,-0.0088,-0.6052,0.8005,-0.323,0.667,0.058,0.28,-37.17,0.9048,0.0408,0.0179,-2.077,-65.853,78.718,-82.09,0.31,0.08,-63.81,-63.89
134603,1482.78,3300.00,1501.32,0.0002,0.1836,1.1804,1.376,-0.069,-0.753,0.10,8.58,-0.0127,-0.6052,0.8042,-0.018,0.179,0.104,0.29,-37.17,0.8871,-0.0975,0.0140,-2.001,-61.257,97.298,-82.99,-1.36,0.09,-65.16,-65.25
134628,1485.20,3300.00,1496.48,0.0002,0.1758,1.1865,0.078,0.175,-0.524,0.10,8.58,-0.0063,-0.6042,0.8062,0.257,0.133,0.089,0.29,-37.16,1.0684,-0.3805,0.1362,2.930,-61.868,86.687,-84.22,-2.67,0.09,-66.50,-66.59
134642,1494.07,3300.00,1470.70,-0.0059,0.1824,1.1831,0.459,-0.817,-0.570,0.10,8.59,-0.0012,-0.6064,0.8030,-0.980,-0.050,0.501,0.29,-37.17,0.9106,-0.2306,0.0128,2.655,-63.685,85.985,-84.95,-4.32,0.10,-67.80,-67.90
134667,1495.68,3300.00,1482.78,-0.0029,0.1816,1.1887,0.322,-0.710,-0.738,0.08,8.60,0.0012,-0.6086,0.7961,0.440,-0.020,-0.186,0.28,-37.16,0.8638,-0.2246,0.0151,-19.711,-68.769,101.130,-86.45,-6.44,0.11,-69.11,-69.22
134682,1498.10,3300.00,1475.53,0.0000,0.1831,1.1829,-0.609,0.236,0.758,0.08,8.60,0.0002,-0.6038,0.8098,0.089,0.026,0.028,0.28,-37.15,0.9374,-0.2217,0.0183,-15.329,-66.341,102.046,-87.19,-8.23,0.11,-70.38,-70.50
134707,1485.20,3300.00,1494.87,-0.0068,0.1753,1.1804,-0.090,0.282,0.071,0.09,8.59,-0.0017,-0.6067,0.7991,-0.689,-0.142,0.180,0.27,-37.17,0.8982,-0.2231,-0.0193,-25.207,-61.150,108.550,-88.46,-10.58,0.12,-71.65,-71.77
134721,1490.84,3300.00,1481.17,-0.0017,0.1833,1.1846,-0.212,-0.237,-0.142,0.09,8.59,0.0015,-0.6104,0.8037,0.104,-0.111,-0.247,0.26,-37.17,0.9268,-0.3901,-0.0488,-34.963,-62.326,105.191,-88.92,-12.81,0.12,-72.87,-72.99
134746,1469.89,3300.00,1508.57,0.0020,0.1782,1.2070,-2.228,-0.802,0.361,0.07,8.54,-0.0134,-0.6040,0.8020,-0.155,0.209,0.211,0.28,-37.17,0.9701,-0.6355,-0.0801,-37.192,-74.921,101.313,-90.09,-15.40,0.13,-74.08,-74.21
134761,1488.42,3300.00,1486.81,-0.0002,0.1755,1.1951,-0.121,-0.726,-0.432,0.05,8.53,-0.0129,-0.6074,0.8015,-0.109,0.285,0.318,0.29,-37.17,0.9092,-0.5587,-0.1171,-41.940,-76.143,106.580,-90.54,-17.73,0.14,-75.24,-75.37
134786,1491.65,3300.00,1497.29,0.0024,0.1765,1.1907,2.887,0.419,-0.890,0.06,8.60,-0.0151,-0.5986,0.7974,-0.033,0.453,0.532,0.31,-37.17,0.9097,-0.4924,-0.1429,-22.215,-66.646,93.985,-91.56,-20.04,0.14,-76.38,-76.53
134800,1490.04,3300.00,1482.78,-0.0020,0.1821,1.1775,1.910,1.091,-0.356,0.08,8.63,-0.0115,-0.6055,0.7991,0.104,0.392,-0.094,0.32,-37.17,0.9017,-0.4684,-0.1707,-30.459,-65.242,90.229,-91.89,-22.27,0.15,-77.47,-77.62
134825,1492.45,3300.00,1496.48,-0.0037,0.1846,1.1890,-1.907,-1.245,0.148,0.05,8.59,-0.0073,-0.6042,0.8064,-0.018,0.224,0.013,0.33,-37.16,0.8678,-0.4329,-0.1633,-29.207,-68.784,91.023,-92.97,-24.76,0.16,-78.56,-78.72
134840,1498.10,3300.00,1505.35,-0.0046,0.1765,1.1948,-3.541,-0.878,1.415,0.04,8.53,-0.0110,-0.6035,0.8054,0.394,-0.035,-0.293,0.34,-37.15,0.8584,-0.5378,-0.2048,-20.047,-86.066,96.153,-93.45,-26.76,0.17,-79.61,-79.78
134864,1478.75,3300.00,1504.54,-0.0078,0.1846,1.1841,-0.075,0.893,-0.860,0.07,8.54,0.0071,-0.6123,0.8123,-0.445,-0.050,0.501,0.32,-37.16,0.7924,-0.5627,-0.2063,-17.909,-43.578,49.130,-93.70,-28.87,0.18,-80.60,-80.77
134879,1477.14,3300.00,1492.45,0.0007,0.1770,1.1870,1.498,0.755,-0.051,0.08,8.56,-0.0044,-0.6079,0.7974,-1.361,0.438,0.455,0.33,-37.18,0.7917,-0.5742,-0.1759,-3.467,-45.043,34.931,-93.52,-30.48,0.18,-81.51,-81.69
134904,1496.48,3300.00,1506.15,-0.0068,0.1853,1.1655,0.017,0.557,-0.097,0.10,8.57,0.0007,-0.6121,0.8003,0.914,-0.127,-0.384,0.32,-37.16,0.8068,-0.6147,-0.2640,-16.383,-57.074,29.802,-94.04,-32.53,0.18,-82.39,-82.58
134918,1486.01,3300.00,1508.57,-0.0068,0.1753,1.1885,-1.312,-0.588,-0.509,0.09,8.55,0.0012,-0.6099,0.8052,-0.705,-0.157,0.287,0.31,-37.17,0.7937,-0.6248,-0.2728,-22.749,-64.295,35.069,-94.06,-34.47,0.19,-83.22,-83.40
134943,1483.59,3300.00,1490.04,-0.0010,0.1765,1.1851,-2.136,-0.741,0.102,0.07,8.49,-0.0076,-0.6113,0.7996,0.074,0.056,0.074,0.31,-37.17,0.8110,-0.5923,-0.2626,-14.612,-54.830,20.886,-94.54,-36.42,0.19,-84.01,-84.20
134957,1483.59,3300.00,1469.89,-0.0081,0.1736,1.1924,-0.151,0.358,-0.799,0.08,8.49,0.0002,-0.6101,0.8059,0.074,-0.096,-0.552,0.30,-37.17,0.7418,-0.5695,-0.2806,-14.245,-57.379,17.618,-94.45,-38.22,0.19,-84.75,-84.94
134982,1485.20,3300.00,1491.65,0.0000,0.1792,1.1865,1.757,-0.115,-0.432,0.08,8.53,-0.0054,-0.6143,0.7910,-0.277,0.026,0.089,0.30,-37.19,0.7462,-0.5846,-0.3317,-14.474,-71.257,22.061,-95.26,-40.20,0.19,-85.49,-85.68
134997,1490.84,3300.00,1498.10,-0.0027,0.1777,1.1816,-1.174,0.374,0.056,0.09,8.52,-0.0042,-0.6128,0.8059,0.654,-0.234,0.074,0.30,-37.18,0.8162,-0.5747,-0.3062,-13.711,-81.181,25.893,-95.54,-41.95,0.19,-86.20,-86.40
135021,1485.20,3300.00,1490.84,0.0007,0.1826,1.1838,-0.670,-0.970,-0.127,0.06,8.50,-0.0059,-0.6079,0.7988,-0.888,0.026,0.761,0.30,-37.21,0.8053,-0.5366,-0.3822,-8.948,-67.410,23.405,-96.28,-43.84,0.20,-86.91,-87.11
135036,1485.20,3300.00,1488.42,-0.0098,0.1704,1.1833,-2.075,0.954,1.598,0.08,8.47,-0.0198,-0.6172,0.7861,1.601,-0.295,-2.216,0.31,-37.20,0.8271,-0.5659,-0.3923,-5.574,-60.417,23.542,-96.22,-45.53,0.20,-87.57,-87.77
135061,1485.20,3300.00,1494.87,0.0198,0.2078,1.1675,0.047,-5.168,8.713,-0.06,8.50,0.0083,-0.6079,0.8127,17.784,-2.402,-9.697,0.24,-36.76,0.6875,-0.5907,-0.4335,-7.039,-56.295,24.931,-96.53,-47.32,0.21,-88.19,-88.40
135076,1483.59,3300.00,1498.90,0.0010,0.1924,1.1611,-13.052,-4.695,0.453,-0.13,8.33,-0.0398,-0.7007,0.8311,2.379,2.240,-3.728,0.31,-36.80,0.6512,-0.6478,-0.4663,-3.512,-57.135,26.305,-96.20,-48.94,0.22,-88.74,-88.97
135100,1457.80,3300.00,1462.64,-0.0015,0.1440,1.2163,-6.731,-3.626,2.713,-0.21,8.14,-0.0293,-0.5911,0.7441,6.272,3.598,-12.354,0.42,-36.68,0.6306,-0.6167,-0.4673,-9.116,-58.906,20.031,-96.49,-50.72,0.25,-89.27,-89.52
135115,1478.75,3300.00,1498.10,0.0273,0.1890,1.1919,9.437,0.236,-2.814,-0.23,8.29,0.3875,-0.6338,0.7449,18.135,2.942,-2.644,0.02,-36.49,0.6720,-0.6227,-0.4688,-11.757,-55.685,24.107,-96.17,-52.42,0.25,-89.74,-89.99
135140,1480.37,3300.00,1486.81,-0.0244,0.1418,1.1931,2.444,8.007,-1.929,-0.01,8.32,0.1028,-0.6428,0.8064,13.875,8.453,-5.926,0.12,-36.20,0.6436,-0.6110,-0.5323,-7.894,-47.150,20.367,-96.16,-54.18,0.24,-90.19,-90.43
135154,1435.24,3300.00,1457.00,-0.0017,0.1760,1.1792,10.368,-6.176,-1.379,-0.10,8.47,0.0388,-0.5811,0.8149,-15.911,-7.760,-2.781,-0.04,-36.41,0.6152,-0.6289,-0.5701,-6.200,-41.547,23.863,-95.55,-55.83,0.23,-90.55,-90.78
135179,1514.21,3300.00,1530.33,0.0176,0.1831,1.1848,-14.258,1.748,1.949,-0.07,8.13,-0.0413,-0.6313,0.7427,7.433,3.263,-6.995,0.09,-36.31,0.6094,-0.7141,-0.6282,-5.635,-23.440,11.908,-94.86,-57.48,0.22,-90.85,-91.08
135194,1511.79,3300.00,1535.97,-0.0193,0.1458,1.1985,-10.655,-1.672,0.484,-0.07,7.95,-0.0225,-0.6008,0.7971,15.830,-4.066,6.150,0.05,-36.10,0.6279,-0.6880,-0.6504,0.396,-11.700,4.657,-93.80,-58.99,0.22,-91.05,-91.27
135218,1430.40,3300.00,1451.36,0.0076,0.1765,1.1902,4.734,1.381,0.652,-0.04,8.08,-0.0002,-0.6006,0.8225,-8.094,1.079,1.570,0.08,-36.29,0.6715,-0.6907,-0.6787,4.518,20.117,-7.359,-92.13,-60.39,0.21,-91.13,-91.34
135233,1461.03,3300.00,1495.68,-0.0049,0.1606,1.2021,4.108,3.458,-2.417,0.01,8.13,-0.0115,-0.6257,0.7729,-14.140,-2.661,2.806,0.05,-36.55,0.6401,-0.7089,-0.6611,10.182,38.056,-15.404,-90.42,-61.70,0.20,-91.08,-91.28
135258,1502.93,3300.00,1515.82,-0.0051,0.1909,1.1628,9.467,-2.237,-1.608,-0.04,8.38,0.0093,-0.6108,0.8044,7.646,-0.997,-3.087,0.02,-36.38,0.6277,-0.6661,-0.5992,24.976,60.697,-27.252,-87.84,-62.50,0.19,-90.85,-91.04
135272,1482.78,3300.00,1491.65,0.0103,0.1912,1.1685,-7.220,-0.894,2.026,-0.06,8.30,-0.0132,-0.5901,0.8193,1.005,-0.905,3.417,0.02,-36.35,0.6295,-0.6338,-0.5624,34.625,65.399,-27.664,-85.88,-63.39,0.18,-90.50,-90.68
135297,1458.61,3300.00,1481.98,-0.0042,0.1562,1.1997,-6.960,-2.848,1.064,-0.12,8.11,0.0374,-0.6318,0.8020,-6.109,-0.661,-1.606,-0.04,-36.53,0.6858,-0.6166,-0.5636,49.800,82.743,-43.527,-82.95,-63.56,0.18,-89.96,-90.13
135312,1474.73,3300.00,1479.56,0.0146,0.1655,1.2056,0.398,-1.749,1.613,-0.16,8.11,-0.0369,-0.5959,0.7791,-1.789,0.896,2.868,0.02,-36.58,0.7076,-0.6421,-0.5140,49.342,99.903,-49.939,-80.67,-64.16,0.18,-89.30,-89.47
135336,1488.42,3300.00,1497.29,-0.0073,0.1636,1.1973,2.292,6.053,0.346,-0.00,8.16,-0.0085,-0.5881,0.8345,6.196,-1.134,-1.194,-0.00,-36.40,0.6261,-0.6278,-0.4568,57.633,106.758,-56.015,-77.25,-64.00,0.16,-88.45,-88.62
135351,1494.07,3300.00,1490.04,-0.0020,0.1765,1.1843,11.131,-2.100,-1.791,-0.03,8.33,0.0154,-0.6040,0.8181,-4.796,0.743,2.562,-0.01,-36.47,0.6973,-0.5690,-0.4265,67.434,116.575,-48.244,-74.92,-64.29,0.15,-87.50,-87.66
135376,1480.37,3300.00,1499.71,0.0051,0.1863,1.1721,-5.876,0.542,-0.066,-0.02,8.20,0.0125,-0.6350,0.7766,1.540,-0.325,0.715,-0.03,-36.49,0.6501,-0.7609,-0.2957,72.320,113.537,-46.672,-71.43,-63.47,0.14,-86.38,-86.52
135390,1485.20,3300.00,1514.21,-0.0107,0.1580,1.1934,-7.968,0.129,0.300,-0.01,8.07,-0.0054,-0.5942,0.8135,9.631,-0.173,-3.987,-0.02,-36.34,0.7546,-0.6477,-0.2335,73.404,131.644,-71.817,-69.08,-63.35,0.13,-85.17,-85.30
135415,1482.78,3300.00,1491.65,0.0027,0.1794,1.1816,2.124,-1.260,-0.249,-0.04,8.13,0.0005,-0.6072,0.8013,-7.468,0.774,0.791,-0.01,-36.54,0.6768,-0.6096,-0.1577,81.495,157.216,-126.840,-64.81,-62.19,0.13,-83.74,-83.86
135430,1482.78,3300.00,1487.62,0.0061,0.1665,1.1973,-0.105,3.473,0.041,0.00,8.13,-0.0154,-0.6160,0.7805,-2.262,-0.234,1.829,0.01,-36.61,0.7744,-0.5256,-0.1530,53.541,169.979,-123.298,-62.19,-62.31,0.12,-82.23,-82.35
135455,1476.34,3300.00,1493.26,-0.0029,0.1799,1.1736,6.185,-0.924,1.201,-0.02,8.29,-0.0007,-0.6025,0.8103,4.257,-0.386,1.860,-0.00,-36.51,0.8822,-0.4347,-0.0333,41.404,177.415,-98.214,-57.90,-61.94,0.11,-80.53,-80.64
135469,1482.78,3300.00,1487.62,0.0098,0.1904,1.1741,0.230,-0.588,1.018,-0.04,8.31,0.0020,-0.6096,0.8083,0.761,-0.111,-2.018,-0.00,-36.51,0.7770,-0.3323,-0.0363,69.892,163.903,-105.695,-55.73,-61.63,0.10,-78.79,-78.89
135494,1465.05,3300.00,1494.07,-0.0066,0.1597,1.1953,-5.006,-0.329,0.987,-0.04,8.18,0.0110,-0.6243,0.7891,-4.781,0.148,0.852,-0.01,-36.66,0.7892,-0.3247,0.0677,79.251,160.376,-85.175,-52.04,-60.02,0.10,-76.91,-77.01
135509,1473.92,3300.00,1477.95,0.0088,0.1731,1.1938,3.162,-1.855,1.568,-0.07,8.22,-0.0144,-0.6135,0.7837,1.891,-0.600,-0.247,-0.00,-36.66,0.8253,-0.3728,0.1638,77.312,145.812,-81.008,-50.21,-59.05,0.10,-75.04,-75.13
135533,1482.78,3300.00,1498.90,0.0022,0.1726,1.1912,2.551,2.847,-0.356,-0.00,8.28,0.0007,-0.5886,0.8335,3.280,-0.661,-0.201,-0.02,-36.55,0.9224,-0.3231,0.3035,101.953,150.270,-93.969,-46.85,-56.33,0.09,-73.06,-73.15
135548,1482.78,3300.00,1519.05,-0.0095,0.1731,1.1819,5.772,0.908,-0.448,0.02,8.37,0.0056,-0.6104,0.8069,-8.109,0.759,1.738,-0.02,-36.68,0.8914,-0.2772,0.2922,80.717,152.911,-101.099,-45.06,-54.93,0.08,-71.11,-71.19
135573,1490.04,3300.00,1491.65,0.0112,0.1841,1.1780,-2.533,-0.161,0.392,0.00,8.32,-0.0161,-0.6035,0.7964,3.463,-1.104,-0.049,-0.02,-36.60,0.7937,-0.3223,0.3057,54.579,133.552,-73.695,-42.12,-53.44,0.07,-69.08,-69.15
135587,1470.70,3300.00,1487.62,-0.0063,0.1697,1.1887,-6.014,1.076,1.369,0.03,8.23,0.0203,-0.6038,0.8264,4.715,-0.386,-1.667,-0.05,-36.53,0.7266,-0.3566,0.4082,34.671,136.712,-81.084,-40.41,-52.70,0.06,-67.07,-67.13
135612,1465.86,3300.00,1493.26,-0.0010,0.1748,1.1860,4.032,-1.336,-0.646,-0.01,8.33,-0.0107,-0.6047,0.7961,-5.529,0.347,2.028,-0.03,-36.68,0.8125,-0.2003,0.4563,63.037,138.972,-117.496,-37.39,-50.59,0.06,-64.99,-65.05
135626,1467.47,3300.00,1497.29,0.0024,0.1760,1.1851,1.406,2.557,0.682,0.03,8.35,0.0000,-0.6128,0.7964,-1.804,0.392,-0.873,-0.02,-36.72,0.9075,-0.1199,0.5223,75.633,128.529,-114.198,-36.00,-48.76,0.05,-62.97,-63.01
135651,1492.45,3300.00,1508.57,-0.0068,0.1821,1.1785,3.543,-0.527,0.071,0.02,8.44,-0.0122,-0.6050,0.8057,2.181,-0.066,0.364,-0.01,-36.67,0.8584,0.0524,0.5280,85.327,112.117,-99.221,-33.73,-45.60,0.04,-60.92,-60.96
135666,1482.78,3300.00,1490.04,0.0017,0.1838,1.1904,-2.502,-0.298,0.713,0.01,8.42,0.0015,-0.6042,0.8201,2.852,-0.096,-1.377,-0.01,-36.62,0.8723,-0.0099,0.5292,63.678,106.468,-83.252,-32.71,-43.80,0.04,-58.95,-58.99
135691,1480.37,3300.00,1498.10,-0.0015,0.1685,1.2007,-4.686,0.022,1.049,0.02,8.29,-0.0068,-0.6130,0.7898,-4.949,0.972,1.341,0.02,-36.77,0.8412,-0.1417,0.4991,102.060,88.468,-98.030,-31.06,-40.75,0.04,-57.00,-57.03
135705,1473.92,3300.00,1493.26,0.0054,0.1721,1.1929,1.589,-1.016,-0.264,-0.00,8.31,0.0002,-0.6230,0.7844,1.646,-0.157,-0.369,0.01,-36.78,0.7863,-0.0670,0.6342,55.144,105.796,-80.809,-29.96,-39.27,0.03,-55.10,-55.14
135730,1477.95,3300.00,1480.37,0.0044,0.1748,1.1909,2.597,2.404,0.285,0.05,8.38,0.0024,-0.5964,0.8169,1.143,0.209,-0.873,0.02,-36.74,0.7994,-0.0817,0.7544,53.755,86.056,-88.275,-28.20,-37.30,0.03,-53.22,-53.25
135744,1466.67,3300.00,1493.26,-0.0073,0.1775,1.1755,4.780,-0.237,-1.150,0.05,8.45,-0.0022,-0.6108,0.7949,-5.468,0.438,1.814,0.03,-36.83,0.7545,0.0457,0.6469,46.152,64.407,-68.412,-27.71,-35.82,0.03,-51.44,-51.47
135769,1472.31,3300.00,1482.78,0.0015,0.1775,1.1919,-3.052,-0.909,-0.326,0.03,8.38,0.0034,-0.6108,0.8035,3.723,-0.432,-1.453,0.01,-36.75,0.6683,0.1544,0.5687,60.411,68.834,-79.237,-26.45,-33.33,0.02,-49.69,-49.72
135784,1479.56,3300.00,1478.75,-0.0042,0.1733,1.1890,-5.205,-0.161,0.545,0.03,8.30,0.0029,-0.6042,0.8152,1.707,-0.035,0.425,0.01,-36.72,0.7299,0.1217,0.6681,64.976,86.407,-89.008,-25.63,-31.53,0.02,-48.01,-48.03
135809,1475.53,3300.00,1492.45,0.0012,0.1711,1.1936,1.818,-0.222,-0.616,0.02,8.34,-0.0034,-0.6094,0.8042,-1.804,0.118,-0.201,0.01,-36.77,0.7103,0.1377,0.7250,54.869,63.735,-71.511,-24.45,-29.35,0.02,-46.36,-46.38
135823,1482.78,3300.00,1504.54,0.0042,0.1729,1.1843,2.734,1.396,0.377,0.04,8.38,-0.0034,-0.6113,0.7969,-1.514,-0.157,0.364,0.01,-36.81,0.7062,0.1506,0.7476,64.274,65.170,-84.107,-23.89,-27.62,0.01,-44.79,-44.81
135848,1480.37,3300.00,1496.48,-0.0039,0.1790,1.1726,2.536,0.328,-0.356,0.05,8.45,-0.0054,-0.6089,0.7998,2.730,-0.127,-0.659,0.02,-36.75,0.8136,0.3182,0.7975,50.075,60.041,-70.641,-22.82,-25.41,0.01,-43.26,-43.27
135862,1480.37,3300.00,1484.40,0.0015,0.1760,1.1838,-1.876,-0.497,0.484,0.04,8.42,-0.0029,-0.5996,0.8147,0.471,-0.249,-0.003,0.02,-36.74,0.6550,0.3046,0.7356,51.999,43.583,-70.092,-22.53,-23.72,0.01,-41.81,-41.82
135887,1469.89,3300.00,1475.53,0.0002,0.1675,1.1875,-4.304,-0.542,1.125,0.03,8.31,-0.0083,-0.6162,0.7876,-2.720,0.301,0.700,0.03,-36.83,0.6333,0.3031,0.7410,40.655,51.415,-68.290,-21.61,-21.82,0.01,-40.40,-40.41
135901,1472.31,3300.00,1487.62,0.0000,0.1707,1.1963,-0.228,-0.130,-0.188,0.02,8.30,-0.0034,-0.6128,0.8037,3.005,-0.340,-0.094,0.03,-36.80,0.6348,0.3187,0.8025,37.739,52.163,-62.321,-21.16,-20.41,0.01,-39.05,-39.06
135926,1458.61,3300.00,1495.68,0.0020,0.1775,1.1929,4.169,1.259,0.132,0.05,8.41,-0.0015,-0.6057,0.8086,-1.025,-0.050,0.409,0.03,-36.82,0.6361,0.3284,0.8557,13.266,53.155,-53.206,-20.14,-19.26,0.01,-37.73,-37.74
135941,1461.03,3300.00,1493.26,-0.0034,0.1807,1.1741,3.772,0.404,-0.692,0.06,8.47,-0.0071,-0.6084,0.7927,-3.361,0.240,0.822,0.04,-36.88,0.6171,0.3744,0.8402,14.976,43.109,-51.267,-19.80,-18.18,0.00,-36.48,-36.49
135966,1486.81,3300.00,1495.68,0.0002,0.1782,1.1836,-1.983,-0.710,-0.066,0.04,8.42,-0.0029,-0.6086,0.8040,2.456,-0.157,-0.644,0.04,-36.83,0.5907,0.3046,0.7782,16.900,29.796,-41.267,-19.38,-16.98,0.00,-35.29,-35.29
135980,1486.01,3300.00,1488.42,-0.0002,0.1780,1.1763,-3.632,-0.955,0.682,0.03,8.37,-0.0024,-0.6003,0.7944,1.540,-0.371,0.013,0.04,-36.81,0.5781,0.2871,0.7357,9.984,28.331,-39.924,-19.32,-16.07,0.00,-34.17,-34.18
136005,1490.84,3300.00,1486.81,0.0010,0.1729,1.1899,-0.273,0.145,-0.264,0.03,8.36,-0.0002,-0.6069,0.8000,-2.170,0.224,0.486,0.04,-36.87,0.5442,0.2703,0.5786,8.411,42.621,-57.466,-18.70,-15.05,0.01,-33.09,-33.10
136019,1482.78,3300.00,1494.87,0.0073,0.1775,1.1938,3.131,0.893,-0.234,0.03,8.41,0.0059,-0.6123,0.8044,-1.407,-0.050,0.913,0.03,-36.90,0.4934,0.3810,0.7546,2.503,51.506,-56.824,-18.20,-14.17,0.01,-32.05,-32.06
136044,1476.34,3300.00,1482.78,-0.0227,0.1650,1.1895,1.925,5.503,-4.341,0.19,8.45,-0.0088,-0.5999,0.7922,-10.827,0.148,7.051,0.05,-37.17,0.4562,0.6208,0.6622,10.533,58.483,-43.725,-16.95,-12.77,-0.01,-31.01,-31.00
136059,1465.86,3300.00,1485.20,-0.0081,0.1643,1.1980,5.208,1.152,1.965,0.21,8.51,-0.0120,-0.6167,0.8271,17.356,-5.486,-0.308,-0.02,-36.91,0.5117,0.3701,0.7113,16.045,66.529,-49.878,-16.32,-11.74,-0.02,-29.99,-29.97
136084,1485.20,3300.00,1501.32,-0.0022,0.1833,1.1763,-6.991,0.282,-0.051,0.21,8.34,-0.0400,-0.6523,0.7908,-4.567,-3.806,7.112,-0.07,-37.08,0.4407,0.2858,0.7678,-15.070,70.621,-67.527,-14.83,-11.46,-0.04,-28.95,-28.91
136098,1481.98,3300.00,1499.71,-0.0132,0.1589,1.1978,-8.731,0.435,0.881,0.23,8.20,-0.0015,-0.6555,0.7759,2.852,-1.028,-1.026,-0.08,-37.10,0.4115,0.3964,0.7545,-5.757,64.728,-60.595,-14.13,-10.76,-0.06,-27.93,-27.87
136123,1490.04,3300.00,1503.74,0.0063,0.1804,1.1899,1.986,0.725,0.697,0.23,8.26,0.0073,-0.6086,0.8167,7.646,-0.005,-2.613,-0.08,-36.90,0.3677,0.5892,0.8516,20.518,74.422,-50.427,-12.42,-9.35,-0.08,-26.86,-26.78
136138,1465.05,3300.00,1485.20,-0.0012,0.1738,1.1978,3.528,2.725,-1.242,0.27,8.31,-0.0164,-0.5840,0.8186,-3.178,0.133,1.295,-0.06,-36.92,0.3707,0.5920,0.8608,21.342,79.888,-41.053,-11.43,-8.17,-0.09,-25.80,-25.70
136162,1488.42,3300.00,1513.41,0.0063,0.2031,1.1638,7.956,-0.771,0.117,0.24,8.54,-0.0256,-0.6064,0.7827,-1.835,-0.432,1.692,-0.04,-36.98,0.3516,0.4639,1.0002,14.823,63.750,-16.977,-10.00,-7.15,-0.11,-24.71,-24.60
136177,1475.53,3300.00,1499.71,-0.0073,0.1826,1.1775,-4.823,0.816,-1.104,0.25,8.47,0.0137,-0.6169,0.8049,4.165,-0.035,-0.461,-0.06,-36.93,0.3955,0.4398,1.0325,15.526,42.499,-9.527,-9.58,-6.32,-0.12,-23.67,-23.54
136202,1477.95,3300.00,1483.59,-0.0002,0.1763,1.1970,-0.838,-2.451,1.613,0.19,8.45,0.0083,-0.6086,0.8120,-1.377,0.957,-1.056,-0.04,-36.96,0.3301,0.4626,1.0255,3.404,16.285,-2.336,-9.32,-5.63,-0.13,-22.67,-22.55
136216,1470.70,3300.00,1466.67,-0.0015,0.1812,1.1870,0.872,1.366,-0.142,0.21,8.47,-0.0103,-0.6045,0.8022,-4.002,0.270,0.409,-0.03,-37.02,0.3064,0.4517,1.0057,-2.673,-1.120,0.855,-9.46,-5.07,-0.14,-21.76,-21.63
136241,1479.56,3300.00,1487.62,-0.0051,0.1775,1.1865,2.398,2.038,0.560,0.26,8.53,-0.0227,-0.6086,0.7932,3.249,-0.340,0.715,-0.01,-36.95,0.3236,0.4626,0.9636,9.083,-11.166,10.168,-9.88,-4.24,-0.15,-20.95,-20.81
136256,1482.78,3300.00,1495.68,-0.0029,0.1926,1.1660,2.734,-1.123,-0.310,0.24,8.58,0.0095,-0.6064,0.8169,5.967,-0.173,-1.774,-0.02,-36.86,0.3527,0.9606,0.4120,72.747,9.323,42.825,-9.93,-1.78,-0.15,-20.20,-20.04
136281,1482.78,3300.00,1491.65,-0.0022,0.1777,1.1917,-3.495,-2.359,0.117,0.18,8.50,0.0059,-0.6228,0.7856,-7.560,1.049,0.776,-0.00,-37.08,0.1842,0.4258,1.0222,-24.993,-29.379,1.405,-10.64,-1.91,-0.15,-19.54,-19.38
136295,1485.20,3300.00,1494.07,-0.0002,0.1736,1.1931,-1.983,-0.894,0.346,0.16,8.46,-0.0161,-0.6221,0.7764,-0.476,0.026,0.837,0.02,-37.12,0.3706,0.6808,0.9573,-5.070,-43.944,14.580,-11.40,-1.23,-0.15,-18.98,-18.83
136320,1481.98,3300.00,1475.53,-0.0039,0.1748,1.1943,0.688,0.816,0.132,0.18,8.48,-0.0002,-0.5886,0.8242,3.891,-0.234,-0.827,0.01,-36.99,0.4690,0.8738,1.1145,-26.688,-81.929,59.283,-13.53,-1.09,-0.16,-18.61,-18.46
136335,1469.89,3300.00,1483.59,-0.0042,0.1853,1.1790,3.482,-0.802,-1.180,0.17,8.54,-0.0046,-0.6089,0.8027,-6.140,0.484,2.135,0.02,-37.08,0.4442,0.7593,1.1117,-37.451,-106.845,98.275,-15.15,-0.92,-0.15,-18.38,-18.23
136359,1482.78,3300.00,1508.57,-0.0051,0.1799,1.1873,-3.281,-1.062,-0.539,0.15,8.46,0.0100,-0.6174,0.7957,2.349,0.194,-1.820,0.02,-37.04,0.5084,0.6122,1.0166,-64.917,-156.143,132.458,-19.10,-1.86,-0.15,-18.44,-18.29
136374,1483.59,3300.00,1496.48,-0.0049,0.1758,1.1831,-3.418,-2.863,-0.264,0.11,8.41,-0.0046,-0.5979,0.8105,3.585,0.118,-0.033,0.02,-36.98,0.5388,0.5538,1.1106,-81.803,-165.654,153.054,-21.55,-2.45,-0.15,-18.67,-18.52
136399,1480.37,3300.00,1488.42,-0.0027,0.1758,1.1921,-2.441,-0.726,-0.951,0.09,8.35,-0.0042,-0.6023,0.8096,-1.926,0.148,-0.171,0.03,-37.02,0.9453,0.9064,1.1259,-109.803,-170.402,184.641,-25.94,-4.31,-0.14,-19.18,-19.04
136413,1536.78,3300.00,1549.67,-0.0034,0.1738,1.1831,1.192,0.084,-0.417,0.09,8.37,-0.0020,-0.6118,0.7896,-3.331,0.377,0.669,0.04,-37.08,1.4865,1.8247,1.1924,-189.711,-150.830,264.641,-28.25,-5.78,-0.14,-19.82,-19.69
136438,1431.21,3300.00,1445.71,-0.0020,0.1843,1.1848,2.582,1.015,-0.677,0.12,8.44,0.0027,-0.6118,0.7961,4.196,-0.249,-0.949,0.03,-36.99,-1.6067,-2.0000,-0.2905,-172.200,-192.127,203.603,-31.59,-11.82,-0.13,-20.66,-20.52
136453,1452.16,3300.00,1448.94,-0.0061,0.1780,1.1816,-0.365,0.251,0.102,0.12,8.44,-0.0034,-0.5989,0.8125,2.761,-0.096,-0.903,0.03,-36.93,0.4103,-0.0154,0.4935,-189.177,-104.570,-52.702,-33.24,-14.31,-0.13,-21.55,-21.42
136477,1523.08,3300.00,1533.55,0.0029,0.1819,1.1860,-3.052,-1.367,0.850,0.09,8.37,-0.0076,-0.6172,0.7861,-4.995,0.179,1.326,0.04,-37.08,1.1241,0.7233,-0.1881,-41.253,-67.089,46.641,-35.33,-12.93,-0.12,-22.52,-22.39
136492,1508.57,3300.00,1504.54,-0.0015,0.1707,1.1875,-4.151,-0.084,0.132,0.08,8.30,-0.0081,-0.6201,0.7881,2.227,-0.295,-0.339,0.05,-37.07,0.8979,0.3008,-0.3319,21.312,-53.410,170.076,-36.65,-9.62,-0.12,-23.51,-23.39
136517,1472.31,3300.00,1464.25,-0.0029,0.1707,1.1863,2.979,-0.054,0.132,0.08,8.37,0.0068,-0.6067,0.8140,-0.262,-0.188,0.364,0.03,-37.07,-0.0651,-0.2683,0.4968,-54.505,104.163,56.809,-33.26,-11.32,-0.11,-24.20,-24.09
136531,1499.71,3300.00,1526.30,-0.0012,0.1790,1.1824,4.765,0.480,-0.646,0.09,8.45,-0.0049,-0.6140,0.7986,-3.835,0.133,0.623,0.04,-37.13,0.2863,-0.6211,0.9321,131.984,28.010,-21.298,-32.48,-9.89,-0.11,-24.79,-24.68
136556,1455.38,3300.00,1468.28,-0.0051,0.1792,1.1816,-1.235,0.313,0.194,0.10,8.42,-0.0088,-0.6064,0.8030,1.753,-0.035,0.074,0.05,-37.09,1.2684,-0.6995,0.3125,43.388,-40.402,-75.053,-33.99,-9.96,-0.10,-25.44,-25.33
136570,1423.15,3300.00,1444.10,0.0024,0.1797,1.1873,-2.686,-1.382,0.667,0.08,8.39,-0.0068,-0.6111,0.8088,1.555,-0.386,0.287,0.05,-37.07,0.9807,0.1765,0.2429,-43.589,37.873,-54.565,-34.24,-9.65,-0.10,-26.06,-25.96
136595,1540.00,3300.00,1555.31,0.0022,0.1714,1.1985,-2.747,-0.390,0.071,0.06,8.31,0.0022,-0.6094,0.8079,-2.094,0.087,-0.049,0.05,-37.12,0.6676,0.1184,0.5770,9.862,-3.959,22.428,-34.62,-8.99,-0.09,-26.66,-26.57
136610,1523.88,3300.00,1527.91,-0.0002,0.1685,1.1917,1.757,0.419,-0.173,0.07,8.33,-0.0046,-0.6128,0.7878,-3.132,0.255,0.623,0.06,-37.18,0.6650,-0.1960,0.5337,-8.154,27.063,-3.618,-34.53,-9.33,-0.09,-27.22,-27.13
136634,1436.04,3300.00,1448.13,-0.0002,0.1809,1.1804,4.001,0.709,-0.463,0.09,8.44,-0.0059,-0.6062,0.8059,3.341,-0.386,-0.400,0.05,-37.09,0.8357,0.2070,1.0906,24.854,34.590,-57.557,-33.74,-8.32,-0.08,-27.68,-27.60
136649,1468.28,3300.00,1508.57,-0.0037,0.1772,1.1780,0.505,0.847,-0.387,0.10,8.45,0.0051,-0.6038,0.8096,0.318,-0.005,-0.293,0.05,-37.08,0.8755,0.2407,0.8849,-5.314,-33.471,3.954,-34.42,-7.93,-0.08,-28.16,-28.08
136674,1472.31,3300.00,1482.78,-0.0029,0.1777,1.1812,-3.006,-1.229,0.545,0.07,8.38,-0.0093,-0.6152,0.7922,-1.972,0.148,0.761,0.06,-37.14,0.8914,0.1980,0.5566,-21.512,13.873,2.397,-34.52,-7.90,-0.08,-28.61,-28.53
136688,1439.27,3300.00,1423.96,-0.0010,0.1763,1.1917,-3.876,-0.481,0.346,0.06,8.32,-0.0049,-0.6123,0.7917,2.944,-0.005,-1.209,0.06,-37.11,0.7819,0.3098,0.7579,-10.978,4.911,21.985,-34.63,-7.45,-0.07,-29.04,-28.96
136713,1534.36,3300.00,1540.00,-0.0034,0.1680,1.1912,2.398,0.007,-0.097,0.06,8.38,-0.0046,-0.6074,0.8025,-1.254,0.163,0.593,0.07,-37.14,0.7607,-0.2015,0.7887,-27.375,-38.585,53.008,-35.74,-8.26,-0.07,-29.51,-29.44
136728,1532.75,3300.00,1545.64,0.0002,0.1797,1.1851,4.398,0.313,-0.417,0.07,8.44,-0.0063,-0.6135,0.7957,-1.789,0.163,-0.003,0.08,-37.18,0.5740,-0.1639,0.6320,-15.925,-27.120,15.267,-36.24,-8.61,-0.06,-29.99,-29.93
136752,1417.51,3300.00,1420.73,-0.0051,0.1794,1.1853,-0.380,0.694,-0.051,0.09,8.44,-0.0029,-0.6121,0.8022,0.868,0.026,-0.049,0.08,-37.16,0.8164,-0.0735,0.4861,2.197,-31.624,1.191,-37.46,-8.56,-0.06,-30.51,-30.46
136767,1427.18,3300.00,1457.00,-0.0037,0.1799,1.1812,-2.014,-1.168,0.285,0.07,8.41,-0.0068,-0.6050,0.8020,1.509,0.056,-0.201,0.09,-37.14,0.8353,-0.0865,0.3225,-9.054,-12.921,20.580,-38.26,-8.81,-0.05,-31.06,-31.01
136792,1473.11,3300.00,1495.68,0.0005,0.1724,1.1975,-3.373,-0.344,0.178,0.06,8.33,-0.0039,-0.6079,0.7976,-1.941,0.148,0.226,0.10,-37.19,0.7858,-0.2173,0.4701,2.976,25.506,-2.321,-38.01,-9.06,-0.05,-31.55,-31.51
136806,1452.97,3300.00,1447.33,0.0024,0.1699,1.1958,0.063,0.038,-0.020,0.06,8.32,-0.0044,-0.6177,0.7983,-1.453,0.026,0.348,0.10,-37.22,0.6570,-0.1667,0.6428,20.457,28.117,-15.252,-37.74,-8.88,-0.04,-31.99,-31.95
136831,1487.62,3300.00,1514.21,0.0024,0.1797,1.1782,4.001,0.603,-0.326,0.07,8.43,-0.0039,-0.6064,0.8118,2.852,-0.234,-0.705,0.10,-37.14,0.8033,-0.1364,0.6758,5.923,13.873,-43.359,-37.63,-8.79,-0.04,-32.39,-32.35
136846,1527.11,3300.00,1580.29,-0.0049,0.1843,1.1851,1.864,0.954,-0.112,0.09,8.46,-0.0020,-0.6060,0.8125,-1.209,0.133,0.196,0.10,-37.15,0.7996,0.1467,0.6379,10.197,12.056,-39.618,-37.72,-8.20,-0.03,-32.77,-32.74
136870,1419.93,3300.00,1432.01,0.0000,0.1758,1.1821,-2.457,-1.138,0.575,0.06,8.40,-0.0015,-0.6160,0.7966,0.089,-0.020,-0.339,0.10,-37.16,0.8572,0.2094,0.6740,6.457,8.697,-9.160,-37.77,-7.54,-0.03,-33.12,-33.10
136885,1431.21,3300.00,1452.97,-0.0002,0.1785,1.1890,-4.289,-0.863,0.407,0.05,8.34,-0.0037,-0.6072,0.8030,2.028,-0.127,-0.278,0.10,-37.13,0.7915,0.2028,0.7872,-0.856,13.063,5.420,-37.71,-7.11,-0.02,-33.45,-33.43
136910,1514.21,3300.00,1529.52,0.0022,0.1685,1.1992,0.902,0.007,-0.219,0.04,8.36,-0.0020,-0.6062,0.8057,-1.025,0.148,0.211,0.10,-37.15,0.7537,0.0012,0.8594,-9.253,-11.379,21.008,-38.06,-7.19,-0.02,-33.77,-33.76
136924,1477.14,3300.00,1478.75,0.0002,0.1763,1.1873,4.368,0.542,-0.402,0.05,8.42,-0.0042,-0.6108,0.7993,-1.193,0.072,0.013,0.10,-37.17,0.7722,-0.0194,0.7812,-10.032,-27.868,20.137,-38.59,-7.22,-0.01,-34.11,-34.10
136949,1471.50,3300.00,1495.68,-0.0017,0.1812,1.1760,1.391,0.847,-0.310,0.07,8.46,-0.0049,-0.6077,0.7996,1.112,-0.005,-0.049,0.11,-37.14,0.8386,0.0118,0.5254,-15.100,-29.349,19.573,-39.69,-7.42,-0.01,-34.51,-34.50
136963,1508.57,3300.00,1529.52,-0.0046,0.1797,1.1799,-1.342,-0.604,0.209,0.07,8.45,-0.0051,-0.6077,0.7957,1.127,-0.142,-0.140,0.11,-37.13,0.7924,-0.0206,0.4623,-12.810,-17.471,21.679,-40.34,-7.50,-0.00,-34.92,-34.92
136988,1414.29,3300.00,1443.30,-0.0007,0.1746,1.1897,-4.182,-0.802,0.499,0.05,8.35,-0.0056,-0.6116,0.7998,-1.743,0.163,0.272,0.12,-37.18,0.7087,-0.1503,0.5276,3.419,3.583,12.305,-40.49,-7.59,0.00,-35.31,-35.32
137003,1414.29,3300.00,1443.30,0.0000,0.1689,1.1951,-1.693,-0.161,-0.020,0.04,8.32,-0.0059,-0.6125,0.7971,-0.735,0.087,0.318,0.12,-37.20,0.6985,-0.1927,0.5925,3.144,8.315,-2.534,-40.53,-7.75,0.01,-35.68,-35.69
137027,1523.08,3300.00,1540.81,0.0017,0.1780,1.1860,3.849,0.404,-0.173,0.05,8.41,-0.0034,-0.6082,0.8074,1.662,-0.142,-0.415,0.12,-37.15,0.7566,-0.1396,0.5763,1.342,1.766,-17.130,-40.71,-7.84,0.01,-36.04,-36.05
137042,1486.81,3300.00,1495.68,-0.0005,0.1799,1.1797,2.719,0.740,-0.371,0.06,8.46,-0.0034,-0.6108,0.8047,-1.468,0.118,0.516,0.12,-37.18,0.7650,-0.0066,0.5217,12.335,9.979,-21.237,-40.87,-7.52,0.02,-36.38,-36.39
137067,1449.74,3300.00,1467.47,-0.0029,0.1780,1.1821,-1.174,-0.451,0.117,0.05,8.43,-0.0012,-0.6116,0.7974,0.410,0.041,-0.125,0.12,-37.17,0.8237,0.1202,0.6276,9.846,29.583,-21.466,-40.38,-6.91,0.02,-36.66,-36.68
137081,1482.78,3300.00,1530.33,-0.0012,0.1768,1.1858,-2.594,-0.756,0.300,0.04,8.39,-0.0073,-0.6021,0.8052,1.707,-0.035,-0.186,0.13,-37.14,0.8359,0.0828,0.7728,10.503,20.834,-6.901,-40.22,-6.50,0.02,-36.91,-36.94
137106,1451.36,3300.00,1452.97,-0.0032,0.1733,1.1912,-0.411,0.129,-0.081,0.04,8.38,-0.0061,-0.6074,0.8020,-0.919,0.041,0.180,0.14,-37.16,0.7886,0.0288,0.8569,0.197,-2.753,0.229,-40.33,-6.33,0.03,-37.16,-37.19
137120,1423.96,3300.00,1442.49,-0.0027,0.1731,1.1841,2.169,0.084,0.041,0.05,8.41,-0.0029,-0.6106,0.7957,-0.873,0.072,0.028,0.14,-37.18,0.7560,0.0824,0.8083,-8.047,-13.669,0.580,-40.58,-6.20,0.03,-37.40,-37.43
137145,1518.24,3300.00,1534.36,0.0000,0.1799,1.1802,0.826,0.374,-0.142,0.06,8.44,-0.0034,-0.6057,0.8003,1.036,-0.005,-0.110,0.14,-37.16,0.8131,0.0527,0.6080,-10.673,-24.417,17.252,-41.42,-6.24,0.04,-37.68,-37.72
137160,1515.02,3300.00,1510.18,-0.0005,0.1772,1.1841,-1.159,-0.313,0.071,0.05,8.42,-0.0022,-0.6091,0.8047,0.746,-0.035,-0.125,0.14,-37.14,0.8239,0.0209,0.5406,-10.047,-14.784,21.786,-41.93,-6.21,0.04,-37.99,-38.03
137184,1431.21,3300.00,1456.19,0.0010,0.1765,1.1890,-1.937,-0.466,0.239,0.04,8.38,-0.0042,-0.6096,0.7959,-1.392,0.026,0.409,0.14,-37.18,0.7321,-0.0852,0.5692,-7.772,-3.227,17.389,-42.21,-6.44,0.04,-38.28,-38.33
137199,1482.78,3300.00,1497.29,0.0022,0.1721,1.1897,-0.441,0.251,-0.066,0.04,8.37,-0.0056,-0.6116,0.7971,0.456,-0.020,0.028,0.14,-37.18,0.7145,-0.1639,0.6030,0.747,-3.089,8.046,-42.39,-6.61,0.05,-38.57,-38.62
137224,1459.41,3300.00,1465.05,-0.0042,0.1755,1.1846,2.353,0.297,-0.188,0.05,8.42,-0.0027,-0.6072,0.8027,0.425,-0.066,0.043,0.14,-37.17,0.7203,-0.1035,0.5596,3.495,-1.517,-14.656,-42.61,-6.60,0.05,-38.86,-38.91
137238,1442.49,3300.00,1452.97,-0.0020,0.1790,1.1746,1.406,0.374,-0.142,0.05,8.45,-0.0066,-0.6099,0.8003,-1.483,0.026,0.348,0.15,-37.20,0.8313,-0.0791,0.5253,1.831,4.224,-17.175,-42.84,-6.61,0.05,-39.14,-39.20
137263,1519.85,3300.00,1526.30,-0.0022,0.1768,1.1843,-1.968,-0.497,0.361,0.04,8.40,0.0000,-0.6099,0.8040,0.608,-0.157,-0.125,0.14,-37.18,0.8374,-0.0052,0.5737,11.785,18.987,-15.817,-42.64,-6.21,0.06,-39.39,-39.45
137277,1533.55,3300.00,1512.60,0.0005,0.1733,1.1802,-2.334,-0.619,0.224,0.03,8.37,-0.0078,-0.6077,0.7991,0.746,-0.035,-0.033,0.15,-37.17,0.7690,0.0386,0.6844,7.694,23.644,-10.244,-42.41,-5.91,0.06,-39.60,-39.67
137302,1444.10,3300.00,1471.50,-0.0037,0.1704,1.1931,0.750,0.068,-0.264,0.04,8.38,-0.0046,-0.6084,0.7971,-0.552,-0.050,-0.003,0.15,-37.19,0.7549,0.0283,0.7949,3.266,1.995,-5.954,-42.39,-5.67,0.06,-39.80,-39.87
137317,1458.61,3300.00,1494.87,-0.0017,0.1758,1.1890,2.795,0.221,-0.173,0.04,8.42,-0.0039,-0.6118,0.7954,-0.522,-0.127,-0.094,0.15,-37.20,0.7866,0.0607,0.7524,-3.253,-6.448,-3.404,-42.56,-5.51,0.07,-40.00,-40.07
137341,1486.01,3300.00,1509.38,-0.0032,0.1792,1.1775,0.475,0.022,-0.158,0.04,8.44,-0.0034,-0.6150,0.7944,0.791,-0.234,-0.171,0.14,-37.19,0.8344,0.0969,0.6442,-7.238,-12.738,8.336,-43.05,-5.40,0.07,-40.21,-40.28
137356,1457.00,3300.00,1480.37,0.0012,0.1768,1.1855,-1.602,-0.298,0.148,0.04,8.42,-0.0029,-0.6067,0.8059,0.456,-0.157,-0.232,0.14,-37.18,0.8162,0.0391,0.6058,-2.520,-12.005,15.069,-43.43,-5.26,0.07,-40.44,-40.51
137381,1508.57,3300.00,1524.69,-0.0051,0.1765,1.1919,-2.166,-0.726,0.255,0.02,8.36,-0.0044,-0.6167,0.7957,-0.995,-0.096,0.272,0.14,-37.22,0.7537,-0.0737,0.6320,-4.383,-5.547,16.779,-43.69,-5.39,0.07,-40.67,-40.75
137395,1518.24,3300.00,1531.14,0.0000,0.1724,1.1948,-0.411,0.038,0.102,0.02,8.35,-0.0044,-0.6069,0.7959,0.547,-0.157,-0.354,0.14,-37.21,0.7339,-0.1249,0.6307,-4.596,-7.975,9.221,-43.91,-5.57,0.08,-40.90,-40.98
137420,1443.30,3300.00,1473.92,-0.0002,0.1750,1.1755,3.055,0.221,-0.020,0.03,8.43,-0.0015,-0.6047,0.7959,-0.109,-0.111,-0.003,0.14,-37.22,0.7599,-0.0961,0.5564,-0.734,-4.708,-5.038,-44.21,-5.68,0.08,-41.13,-41.21
137435,1443.30,3300.00,1480.37,-0.0005,0.1838,1.1821,1.574,0.038,-0.081,0.03,8.46,-0.0037,-0.6101,0.8035,-0.949,-0.096,-0.079,0.14,-37.23,0.7777,-0.0354,0.5117,1.617,1.552,-9.252,-44.44,-5.62,0.08,-41.37,-41.45
137459,1514.21,3300.00,1510.18,-0.0007,0.1814,1.1882,-2.518,-0.802,0.316,0.01,8.41,-0.0007,-0.6086,0.8022,0.456,-0.188,-0.201,0.13,-37.22,0.7838,-0.0193,0.5795,7.816,14.453,-9.130,-44.27,-5.36,0.08,-41.57,-41.66
137474,1475.53,3300.00,1492.45,0.0049,0.1748,1.1877,-2.838,-0.894,0.285,-0.01,8.36,-0.0029,-0.6096,0.8035,0.303,-0.188,-0.003,0.13,-37.21,0.7656,-0.0028,0.6658,7.648,17.231,-9.359,-44.12,-5.14,0.09,-41.75,-41.84
137498,1494.07,3300.00,1522.27,0.0027,0.1711,1.1985,0.719,0.282,-0.219,-0.00,8.38,-0.0051,-0.6155,0.8013,-0.537,0.133,0.135,0.13,-37.23,0.7643,0.0214,0.7335,6.060,5.369,-10.290,-44.03,-4.86,0.09,-41.91,-42.00
137513,1514.21,3300.00,1525.49,-0.0002,0.1763,1.1870,3.421,0.587,-0.127,0.01,8.43,-0.0012,-0.6082,0.8015,-0.460,-0.035,-0.049,0.13,-37.24,0.8030,0.0482,0.7194,2.762,-0.372,-6.550,-44.12,-4.65,0.09,-42.06,-42.16
137538,1433.63,3300.00,1460.22,-0.0032,0.1826,1.1765,0.948,0.404,-0.081,0.02,8.46,-0.0044,-0.6101,0.8032,0.883,0.011,-0.278,0.14,-37.22,0.8239,0.0939,0.6609,-1.345,-6.295,4.519,-44.41,-4.43,0.10,-42.23,-42.32
137552,1440.07,3300.00,1475.53,-0.0056,0.1758,1.1809,-1.586,-0.298,0.087,0.02,8.44,-0.0017,-0.6057,0.7974,-0.002,-0.035,0.104,0.13,-37.22,0.7886,0.0393,0.6469,-4.108,-4.830,12.214,-44.60,-4.33,0.10,-42.40,-42.49
137577,1524.69,3300.00,1533.55,0.0034,0.1750,1.1892,-3.021,-0.863,0.331,-0.00,8.36,0.0000,-0.6155,0.8032,-0.094,0.026,-0.049,0.13,-37.22,0.7671,-0.0422,0.6600,-8.566,-7.150,11.741,-44.86,-4.52,0.10,-42.57,-42.67
137592,1487.62,3300.00,1499.71,-0.0002,0.1719,1.1895,-1.388,-0.084,0.071,-0.01,8.34,0.0007,-0.6091,0.7981,0.761,-0.157,-0.216,0.13,-37.22,0.7388,-0.0492,0.6246,-5.696,-10.585,9.221,-45.11,-4.60,0.10,-42.75,-42.85
137616,1482.78,3300.00,1501.32,-0.0002,0.1765,1.1895,3.895,0.282,-0.249,0.00,8.43,-0.0032,-0.6045,0.8047,-0.186,-0.142,0.013,0.12,-37.21,0.7697,-0.0618,0.5569,-3.894,-3.776,-0.122,-45.38,-4.73,0.10,-42.93,-43.03
137631,1506.15,3300.00,1527.11,-0.0015,0.1809,1.1753,3.452,0.435,-0.295,0.01,8.49,-0.0039,-0.6077,0.8062,-0.537,-0.279,-0.171,0.12,-37.22,0.7760,-0.0349,0.5485,1.449,1.094,-3.175,-45.55,-4.69,0.10,-43.11,-43.22
137656,1444.91,3300.00,1473.92,-0.0020,0.1826,1.1843,-1.953,-0.970,0.270,-0.01,8.45,-0.0042,-0.6062,0.8066,-0.018,-0.188,-0.186,0.12,-37.21,0.7721,-0.0466,0.5945,4.655,8.941,-3.740,-45.47,-4.57,0.11,-43.28,-43.38
137670,1440.88,3300.00,1483.59,0.0015,0.1763,1.1904,-3.708,-1.520,0.636,-0.04,8.40,-0.0056,-0.6113,0.7981,0.379,-0.249,-0.171,0.12,-37.21,0.7537,-0.0393,0.6448,5.281,11.201,-8.870,-45.39,-4.48,0.11,-43.42,-43.53
137695,1516.63,3300.00,1545.64,0.0000,0.1682,1.1892,-1.586,0.114,-0.142,-0.03,8.35,0.0007,-0.6101,0.8022,-0.720,0.026,0.196,0.12,-37.23,0.7804,0.0157,0.6879,2.869,4.621,-9.282,-45.34,-4.29,0.11,-43.56,-43.67
