timestamp_ms,EMG_Quad_mV,EMG_Ham_mV,EMG_Calf_mV,ACC_Quad_X_g,ACC_Quad_Y_g,ACC_Quad_Z_g,GYR_Quad_X_dps,GYR_Quad_Y_dps,GYR_Quad_Z_dps,Pitch_Quad_deg,Roll_Quad_deg,ACC_Ham_X_g,ACC_Ham_Y_g,ACC_Ham_Z_g,GYR_Ham_X_dps,GYR_Ham_Y_dps,GYR_Ham_Z_dps,Pitch_Ham_deg,Roll_Ham_deg,ACC_Calf_X_g,ACC_Calf_Y_g,ACC_Calf_Z_g,GYR_Calf_X_dps,GYR_Calf_Y_dps,GYR_Calf_Z_dps,Pitch_Calf_deg,Roll_Calf_deg,Angle_Quad_Ham_deg,Angle_Quad_Calf_deg,Angle_Ham_Calf_deg
2,1085.49,1371.58,1332.89,0.0378,0.0386,1.1594,0.123,-0.173,0.082,-2.22,1.89,0.1831,-0.6179,0.7795,-0.366,-0.037,-0.915,-11.05,-38.57,0.9442,0.0814,0.3041,-3.633,1.926,0.783,-71.34,12.93,0.00,-0.02,-0.02
22,499.63,669.67,797.00,0.0527,0.0393,1.2119,-0.091,0.010,-0.132,-2.22,1.89,0.2065,-0.6172,0.7847,1.817,-0.083,-2.641,-11.06,-38.53,0.9928,0.0713,0.3145,-2.167,1.758,-0.499,-71.33,12.89,0.00,-0.04,-0.04
42,979.12,900.15,1057.29,0.0503,0.0432,1.2124,0.016,0.208,0.036,-2.22,1.89,0.1921,-0.6277,0.7617,-2.198,0.299,-0.824,-11.06,-38.59,0.9515,0.0795,0.3048,-2.136,0.384,-1.690,-71.33,12.88,0.00,-0.05,-0.05
62,2309.60,2048.50,1993.70,0.0549,0.0454,1.2073,0.001,-0.067,0.127,-2.23,1.90,0.2017,-0.6228,0.7825,1.649,-0.373,-1.480,-11.07,-38.56,0.9686,0.0918,0.3073,-2.839,1.423,-0.346,-71.30,12.90,0.00,-0.07,-0.07
82,2488.50,2462.71,2239.49,0.0447,0.0439,1.1934,0.031,-0.021,0.036,-2.23,1.90,0.1958,-0.6213,0.7812,0.000,-0.388,-1.770,-11.08,-38.55,0.9812,0.0935,0.2950,-3.434,0.736,0.814,-71.31,12.93,0.00,-0.08,-0.08
102,1087.91,1394.95,1353.85,0.0432,0.0388,1.1990,0.047,-0.051,0.066,-2.23,1.90,0.1855,-0.6196,0.7695,-0.137,0.833,-1.221,-11.05,-38.56,0.9526,0.0702,0.3167,-4.701,1.285,1.913,-71.29,12.83,0.00,-0.09,-0.09
122,484.32,630.99,769.60,0.0432,0.0356,1.1990,-0.045,0.086,0.036,-2.22,1.90,0.1963,-0.6174,0.7788,0.428,-0.358,-2.274,-11.06,-38.55,0.9799,0.0587,0.3097,-3.663,0.125,0.936,-71.30,12.71,0.00,-0.10,-0.10
142,1057.29,965.42,1116.92,0.0496,0.0403,1.1953,-0.030,0.010,0.036,-2.23,1.90,0.1855,-0.6228,0.7634,0.031,0.238,-0.549,-11.05,-38.56,0.9628,0.0693,0.2921,-3.388,-1.493,-1.522,-71.36,12.66,0.00,-0.11,-0.12
162,2406.30,2117.00,2062.20,0.0469,0.0386,1.1946,0.047,-0.036,0.021,-2.23,1.90,0.2026,-0.6157,0.7827,1.283,-0.251,-2.030,-11.07,-38.53,0.9565,0.0835,0.2848,-4.060,1.575,-1.705,-71.36,12.65,0.00,-0.12,-0.13
182,2390.18,2376.48,2175.02,0.0483,0.0383,1.1995,-0.014,-0.067,-0.040,-2.23,1.90,0.1943,-0.6238,0.7781,-0.656,-0.113,-1.740,-11.07,-38.55,0.9736,0.0862,0.2938,-2.884,3.606,0.127,-71.31,12.67,0.00,-0.13,-0.14
202,955.75,1266.81,1232.16,0.0481,0.0403,1.1980,-0.076,0.086,-0.010,-2.23,1.90,0.1914,-0.6191,0.7664,0.672,0.375,-0.976,-11.06,-38.54,0.9641,0.0841,0.3250,-2.716,2.568,-0.087,-71.25,12.65,0.00,-0.14,-0.14
222,482.71,600.37,753.48,0.0474,0.0383,1.2012,-0.076,0.010,-0.010,-2.23,1.89,0.1982,-0.6187,0.7815,0.229,-0.296,-1.633,-11.07,-38.53,0.9595,0.0802,0.3297,-3.984,1.194,-0.560,-71.21,12.60,0.00,-0.14,-0.14
242,1168.50,1056.48,1187.03,0.0476,0.0417,1.1997,0.001,0.056,0.021,-2.23,1.90,0.1892,-0.6206,0.7708,0.183,0.116,-1.297,-11.06,-38.54,0.9688,0.0815,0.3091,-3.770,-1.784,-0.163,-71.26,12.56,0.00,-0.14,-0.14
262,2507.03,2238.68,2151.65,0.0447,0.0403,1.2024,0.138,0.010,0.021,-2.23,1.90,0.2007,-0.6221,0.7854,0.122,-0.067,-1.648,-11.07,-38.53,0.9598,0.0929,0.2939,-3.984,-0.303,0.921,-71.28,12.59,0.00,-0.14,-0.15
283,2204.84,2285.42,2100.07,0.0500,0.0398,1.1970,-0.076,-0.021,0.005,-2.23,1.90,0.1917,-0.6211,0.7749,-0.076,-0.129,-1.572,-11.07,-38.54,0.9673,0.0759,0.2933,-3.984,2.262,1.608,-71.26,12.55,0.01,-0.15,-0.15
303,820.37,1121.76,1149.96,0.0486,0.0349,1.1992,0.001,0.010,0.021,-2.23,1.89,0.1924,-0.6196,0.7771,0.107,0.131,-1.068,-11.06,-38.53,0.9614,0.0607,0.3099,-2.381,1.621,0.173,-71.24,12.47,0.01,-0.15,-0.16
323,510.92,606.01,772.82,0.0483,0.0378,1.2019,0.062,-0.005,-0.056,-2.23,1.89,0.1963,-0.6255,0.7727,-0.015,-0.220,-1.908,-11.07,-38.54,0.9608,0.0679,0.3110,-2.808,1.255,-1.736,-71.23,12.41,0.01,-0.15,-0.16
343,1367.55,1199.12,1302.27,0.0444,0.0400,1.2014,0.016,0.040,0.082,-2.23,1.89,0.1899,-0.6199,0.7729,1.038,0.223,-1.679,-11.06,-38.53,0.9663,0.0862,0.2993,-3.236,0.980,-2.102,-71.22,12.42,0.01,-0.15,-0.16
363,2623.08,2349.08,2231.43,0.0474,0.0366,1.1941,0.016,-0.036,0.005,-2.23,1.89,0.1909,-0.6184,0.7776,-0.443,0.024,-1.175,-11.06,-38.54,0.9686,0.0969,0.3019,-2.961,1.010,-0.285,-71.22,12.47,0.01,-0.15,-0.16
383,2051.72,2170.18,2006.59,0.0432,0.0391,1.2017,0.016,0.117,0.082,-2.23,1.89,0.1870,-0.6228,0.7664,0.855,-0.296,-1.938,-11.05,-38.53,0.9655,0.0898,0.3068,-3.480,2.094,1.470,-71.19,12.48,0.01,-0.15,-0.16
403,718.02,1031.50,1043.59,0.0459,0.0410,1.1953,0.108,0.025,0.051,-2.23,1.89,0.1951,-0.6206,0.7791,-0.092,0.345,-1.129,-11.05,-38.53,0.9689,0.0714,0.3164,-3.617,0.858,1.425,-71.17,12.41,0.01,-0.14,-0.15
423,571.36,631.79,789.74,0.0457,0.0378,1.1960,-0.076,-0.067,0.082,-2.23,1.89,0.1963,-0.6194,0.7705,0.260,-0.251,-1.953,-11.06,-38.53,0.9552,0.0643,0.3115,-3.739,-0.806,0.112,-71.20,12.32,0.01,-0.14,-0.15
443,1513.41,1335.31,1420.73,0.0464,0.0396,1.2009,0.016,-0.051,0.051,-2.23,1.89,0.1958,-0.6250,0.7739,0.305,0.085,-1.526,-11.06,-38.53,0.9670,0.0730,0.2959,-3.846,0.232,-1.278,-71.22,12.28,0.01,-0.14,-0.15
463,2680.29,2441.76,2262.05,0.0461,0.0388,1.1965,0.016,0.056,0.082,-2.23,1.89,0.1978,-0.6255,0.7744,-0.137,0.131,-1.251,-11.06,-38.54,0.9714,0.0859,0.2874,-3.144,1.911,-1.446,-71.22,12.30,0.01,-0.15,-0.15
483,1869.60,2031.58,1877.66,0.0454,0.0408,1.2004,0.047,0.101,-0.102,-2.22,1.89,0.1919,-0.6216,0.7725,0.824,-0.190,-1.862,-11.06,-38.53,0.9587,0.0875,0.3086,-2.503,3.010,-0.484,-71.16,12.33,0.01,-0.14,-0.15
503,631.79,928.35,972.67,0.0442,0.0396,1.2024,-0.030,-0.021,0.066,-2.22,1.89,0.1912,-0.6187,0.7764,-0.504,0.207,-1.144,-11.05,-38.54,0.9628,0.0822,0.3242,-3.281,2.232,0.218,-71.11,12.30,0.01,-0.14,-0.14
523,606.01,662.42,812.31,0.0415,0.0388,1.1919,0.031,0.025,0.036,-2.22,1.89,0.1958,-0.6235,0.7827,0.779,-0.113,-1.923,-11.05,-38.53,0.9664,0.0791,0.3174,-3.877,-0.562,0.386,-71.13,12.26,0.01,-0.13,-0.14
544,1632.67,1444.10,1510.99,0.0471,0.0408,1.2012,-0.106,0.025,-0.025,-2.22,1.89,0.1914,-0.6191,0.7737,0.122,-0.022,-1.373,-11.05,-38.53,0.9625,0.0824,0.2944,-4.197,-1.188,0.371,-71.17,12.24,0.01,-0.13,-0.14
564,2695.60,2462.71,2290.26,0.0471,0.0410,1.1968,-0.014,0.025,-0.040,-2.22,1.89,0.1926,-0.6230,0.7773,0.046,-0.129,-1.373,-11.05,-38.53,0.9700,0.0786,0.2802,-3.800,0.583,0.432,-71.21,12.24,0.01,-0.13,-0.14
584,1737.44,1915.53,1772.09,0.0500,0.0439,1.1970,-0.014,-0.082,-0.010,-2.22,1.90,0.1924,-0.6199,0.7791,0.519,-0.205,-1.679,-11.05,-38.52,0.9597,0.0746,0.2942,-2.778,2.445,0.081,-71.18,12.22,0.01,-0.13,-0.14
604,554.43,840.51,897.73,0.0444,0.0405,1.1980,0.001,0.010,-0.071,-2.22,1.90,0.1953,-0.6260,0.7781,0.015,0.039,-1.312,-11.05,-38.53,0.9594,0.0676,0.3169,-2.793,2.842,-0.759,-71.13,12.16,0.01,-0.13,-0.14
624,682.56,700.29,876.78,0.0479,0.0425,1.1982,0.031,0.010,0.097,-2.22,1.90,0.1941,-0.6187,0.7786,0.611,-0.174,-1.831,-11.06,-38.51,0.9653,0.0779,0.3186,-3.098,1.361,-1.705,-71.11,12.13,0.01,-0.12,-0.13
644,1834.95,1615.75,1677.80,0.0503,0.0403,1.1975,-0.045,0.040,0.112,-2.22,1.90,0.1958,-0.6216,0.7766,-0.198,0.070,-1.389,-11.06,-38.52,0.9675,0.0907,0.3120,-3.327,0.110,-1.308,-71.11,12.15,0.01,-0.12,-0.12
664,2707.69,2526.37,2324.91,0.0435,0.0361,1.1951,0.031,0.132,0.005,-2.22,1.90,0.1946,-0.6182,0.7756,0.489,0.024,-1.495,-11.06,-38.51,0.9656,0.0958,0.2999,-3.709,0.537,0.676,-71.12,12.19,0.01,-0.11,-0.12
684,1521.47,1753.55,1642.34,0.0498,0.0381,1.2019,-0.014,0.010,0.112,-2.22,1.89,0.1951,-0.6233,0.7783,0.214,-0.190,-1.663,-11.06,-38.51,0.9675,0.0802,0.2983,-3.495,0.903,1.745,-71.12,12.18,0.01,-0.11,-0.12
704,506.89,761.54,848.57,0.0452,0.0383,1.2002,-0.076,-0.005,0.189,-2.22,1.89,0.1951,-0.6243,0.7769,0.275,0.192,-1.343,-11.06,-38.51,0.9603,0.0671,0.3051,-3.571,0.812,1.226,-71.12,12.11,0.01,-0.11,-0.11
724,811.50,773.63,922.71,0.0461,0.0420,1.1936,0.062,0.056,0.158,-2.22,1.90,0.1938,-0.6238,0.7769,0.321,-0.037,-1.541,-11.06,-38.51,0.9609,0.0653,0.3075,-3.541,0.690,-0.499,-71.12,12.04,0.01,-0.10,-0.11
744,2021.90,1792.23,1809.96,0.0442,0.0374,1.2026,0.031,-0.036,0.036,-2.22,1.89,0.1895,-0.6238,0.7754,0.183,0.009,-1.373,-11.05,-38.51,0.9672,0.0779,0.2966,-3.007,0.812,-1.644,-71.13,12.03,0.01,-0.10,-0.11
764,2683.52,2540.07,2338.61,0.0464,0.0386,1.1948,-0.045,0.010,-0.010,-2.22,1.89,0.1960,-0.6201,0.7751,0.199,0.055,-1.358,-11.05,-38.51,0.9658,0.0890,0.2925,-2.991,2.018,-1.293,-71.12,12.07,0.01,-0.10,-0.11
784,1415.09,1649.60,1569.01,0.0466,0.0415,1.2041,-0.014,-0.036,0.143,-2.22,1.89,0.1951,-0.6179,0.7715,0.382,-0.129,-1.511,-11.06,-38.51,0.9644,0.0887,0.3090,-2.961,2.522,0.127,-71.08,12.09,0.01,-0.09,-0.10
805,470.62,681.76,786.52,0.0466,0.0359,1.1968,0.062,-0.051,0.082,-2.22,1.89,0.1885,-0.6211,0.7795,0.351,0.039,-1.511,-11.05,-38.50,0.9630,0.0781,0.3201,-3.510,1.117,0.844,-71.06,12.06,0.01,-0.09,-0.09
825,884.03,838.10,992.82,0.0466,0.0393,1.2029,-0.060,-0.021,0.097,-2.22,1.89,0.1914,-0.6201,0.7791,-0.611,-0.052,-1.450,-11.05,-38.51,0.9617,0.0699,0.3148,-3.984,-0.532,0.417,-71.08,11.99,0.01,-0.08,-0.09
845,2204.84,1946.15,1923.59,0.0491,0.0388,1.1970,-0.060,-0.005,-0.040,-2.22,1.89,0.1965,-0.6216,0.7744,0.489,0.024,-1.526,-11.05,-38.51,0.9657,0.0750,0.2949,-3.907,-0.761,-0.255,-71.12,11.96,0.01,-0.08,-0.09
865,2619.05,2525.57,2315.24,0.0420,0.0435,1.1992,-0.076,0.025,-0.086,-2.22,1.89,0.1997,-0.6174,0.7749,0.718,-0.006,-1.495,-11.06,-38.50,0.9679,0.0800,0.2867,-3.312,1.163,-0.453,-71.13,11.96,0.01,-0.08,-0.09
885,1186.23,1493.26,1427.18,0.0454,0.0408,1.2026,0.001,-0.005,-0.010,-2.22,1.89,0.1951,-0.6199,0.7739,-0.046,-0.098,-1.602,-11.06,-38.50,0.9672,0.0780,0.2974,-2.930,3.132,-0.316,-71.10,11.96,0.01,-0.08,-0.08
905,456.92,629.38,765.57,0.0469,0.0398,1.1997,0.062,0.056,0.051,-2.21,1.89,0.1929,-0.6204,0.7734,-0.183,0.162,-1.328,-11.06,-38.51,0.9622,0.0764,0.3145,-2.854,2.491,-0.438,-71.05,11.94,0.01,-0.07,-0.08
925,990.40,928.35,1056.48,0.0500,0.0400,1.2012,-0.060,-0.036,0.066,-2.22,1.89,0.1936,-0.6226,0.7788,0.702,-0.006,-1.602,-11.06,-38.50,0.9639,0.0842,0.3228,-3.419,0.400,-0.774,-71.04,11.92,0.01,-0.07,-0.07
945,2352.31,2079.93,2031.58,0.0508,0.0366,1.1970,0.047,-0.051,-0.056,-2.22,1.89,0.1941,-0.6213,0.7749,0.321,-0.022,-1.511,-11.06,-38.50,0.9653,0.0856,0.3011,-3.968,-0.562,0.020,-71.07,11.92,0.01,-0.06,-0.07
965,2513.48,2474.80,2255.60,0.0452,0.0396,1.1943,-0.076,-0.005,0.066,-2.22,1.89,0.1963,-0.6172,0.7751,-0.183,0.085,-1.373,-11.06,-38.50,0.9688,0.0869,0.2906,-3.663,0.186,1.318,-71.10,11.95,0.01,-0.06,-0.07
985,1044.40,1335.31,1304.69,0.0444,0.0432,1.1980,0.077,-0.097,-0.086,-2.22,1.89,0.1929,-0.6191,0.7803,0.672,-0.129,-1.724,-11.06,-38.49,0.9635,0.0686,0.2977,-3.388,1.499,1.562,-71.10,11.90,0.01,-0.06,-0.07
1005,453.70,611.65,737.36,0.0474,0.0420,1.2019,0.001,-0.051,0.066,-2.22,1.90,0.1953,-0.6184,0.7761,0.107,0.131,-1.358,-11.06,-38.48,0.9622,0.0579,0.3075,-3.144,1.820,-0.301,-71.08,11.81,0.01,-0.06,-0.06
1025,1092.75,982.34,1129.82,0.0496,0.0391,1.2021,-0.137,0.040,0.112,-2.23,1.89,0.1936,-0.6235,0.7764,-0.122,-0.113,-1.434,-11.06,-38.49,0.9646,0.0681,0.3086,-3.083,1.300,-2.438,-71.07,11.77,0.01,-0.05,-0.06
1045,2441.76,2171.79,2107.33,0.0498,0.0420,1.1931,-0.045,-0.082,0.005,-2.23,1.89,0.1934,-0.6226,0.7725,0.412,-0.022,-1.602,-11.06,-38.49,0.9656,0.0906,0.3040,-2.564,1.407,-2.636,-71.06,11.81,0.01,-0.05,-0.06
1065,2397.44,2410.33,2204.84,0.0500,0.0369,1.1936,0.001,-0.067,-0.040,-2.24,1.89,0.1921,-0.6223,0.7754,0.351,0.116,-1.389,-11.05,-38.49,0.9685,0.1019,0.3047,-2.732,2.140,-0.438,-71.03,11.89,0.01,-0.04,-0.05
1085,938.83,1237.00,1237.00,0.0486,0.0388,1.2031,0.047,0.086,0.097,-2.24,1.89,0.1887,-0.6221,0.7788,-0.107,-0.083,-1.495,-11.05,-38.49,0.9650,0.0912,0.3192,-3.495,1.484,1.822,-71.00,11.90,0.01,-0.03,-0.04
1106,466.59,606.81,750.26,0.0481,0.0398,1.1973,-0.014,-0.112,0.036,-2.24,1.89,0.1904,-0.6218,0.7703,0.107,-0.022,-1.450,-11.05,-38.50,0.9590,0.0735,0.3185,-3.526,-0.364,1.623,-71.01,11.86,0.01,-0.03,-0.04
1126,1233.77,1093.55,1230.55,0.0466,0.0403,1.2043,-0.045,-0.021,-0.056,-2.24,1.89,0.1931,-0.6238,0.7817,0.809,-0.052,-1.618,-11.04,-38.49,0.9622,0.0699,0.2998,-4.045,-1.219,0.585,-71.06,11.80,0.01,-0.02,-0.04
1146,2588.43,2303.96,2175.02,0.0464,0.0417,1.2021,0.062,0.010,-0.010,-2.24,1.89,0.1934,-0.6211,0.7725,-0.198,0.009,-1.358,-11.04,-38.50,0.9600,0.0720,0.2771,-3.419,0.247,-0.606,-71.10,11.79,0.02,-0.02,-0.04
1166,2205.64,2282.20,2105.71,0.0464,0.0420,1.1968,0.092,-0.021,0.005,-2.24,1.90,0.1924,-0.6233,0.7644,0.229,-0.098,-1.511,-11.05,-38.51,0.9679,0.0780,0.2871,-2.732,2.781,-1.033,-71.08,11.81,0.02,-0.02,-0.04
1186,791.36,1107.25,1124.18,0.0483,0.0393,1.1948,0.016,-0.005,-0.010,-2.24,1.90,0.1953,-0.6194,0.7756,0.611,0.085,-1.755,-11.05,-38.50,0.9648,0.0776,0.3094,-2.549,3.591,-1.064,-71.02,11.80,0.02,-0.02,-0.03
1206,478.68,599.56,747.84,0.0479,0.0378,1.2036,-0.060,-0.036,-0.025,-2.24,1.90,0.1917,-0.6208,0.7737,0.092,0.070,-1.434,-11.04,-38.50,0.9628,0.0800,0.3229,-2.854,2.155,-1.171,-70.98,11.79,0.02,-0.01,-0.03
1226,1315.97,1173.33,1276.48,0.0493,0.0388,1.1948,0.062,0.147,0.051,-2.24,1.90,0.1921,-0.6213,0.7690,-0.183,-0.129,-1.434,-11.04,-38.51,0.9636,0.0900,0.3195,-3.755,-0.180,-0.407,-70.98,11.79,0.02,0.00,-0.02
1246,2641.61,2347.47,2217.73,0.0496,0.0393,1.2029,-0.014,0.010,0.021,-2.24,1.89,0.1934,-0.6240,0.7737,0.595,-0.006,-1.633,-11.04,-38.51,0.9672,0.0892,0.3035,-4.274,-1.005,0.890,-71.02,11.80,0.02,0.00,-0.02
1266,2118.61,2215.31,2029.96,0.0449,0.0386,1.1968,0.092,0.086,0.051,-2.24,1.90,0.1934,-0.6177,0.7749,0.092,0.131,-1.389,-11.04,-38.51,0.9667,0.0793,0.2891,-4.167,0.216,1.974,-71.05,11.79,0.02,0.01,-0.02
1286,733.33,1029.08,1074.21,0.0466,0.0398,1.1963,-0.060,0.071,-0.010,-2.24,1.89,0.1943,-0.6223,0.7769,-0.137,-0.022,-1.434,-11.04,-38.51,0.9620,0.0626,0.2994,-3.388,1.392,0.967,-71.05,11.72,0.03,0.01,-0.02
1306,514.95,593.92,740.59,0.0498,0.0386,1.1926,0.047,0.010,0.051,-2.24,1.89,0.1951,-0.6187,0.7686,0.565,-0.067,-1.480,-11.05,-38.51,0.9639,0.0632,0.2999,-2.793,1.789,-1.033,-71.04,11.67,0.03,0.01,-0.02
1326,1394.14,1237.00,1340.95,0.0474,0.0386,1.1987,0.016,0.040,-0.163,-2.24,1.89,0.1936,-0.6228,0.7783,0.260,-0.037,-1.450,-11.05,-38.51,0.9633,0.0741,0.3019,-2.793,1.911,-2.285,-71.03,11.66,0.03,0.01,-0.01
1346,2694.80,2408.72,2266.89,0.0488,0.0391,1.1982,-0.076,0.025,0.021,-2.24,1.89,0.1973,-0.6206,0.7749,0.076,-0.006,-1.587,-11.05,-38.51,0.9669,0.0901,0.3059,-2.900,1.682,-1.797,-71.01,11.70,0.03,0.02,-0.01
1366,2046.08,2166.15,1985.64,0.0486,0.0420,1.1997,0.001,0.056,0.112,-2.24,1.89,0.1978,-0.6228,0.7769,0.092,-0.022,-1.358,-11.05,-38.51,0.9680,0.1006,0.3066,-3.251,1.636,0.112,-70.99,11.76,0.03,0.02,-0.01
1386,663.22,979.93,1007.33,0.0452,0.0422,1.2007,-0.030,-0.021,0.051,-2.24,1.90,0.1963,-0.6201,0.7786,0.626,-0.067,-1.663,-11.06,-38.50,0.9657,0.0869,0.3212,-3.541,0.949,1.608,-70.97,11.76,0.03,0.03,0.00
1406,554.43,627.77,776.04,0.0449,0.0405,1.1943,-0.014,0.040,0.036,-2.24,1.90,0.1956,-0.6221,0.7881,-0.015,-0.022,-1.389,-11.06,-38.50,0.9609,0.0739,0.3120,-3.923,-0.364,1.669,-70.99,11.71,0.03,0.03,0.01
1426,1537.58,1362.71,1446.52,0.0476,0.0403,1.1987,0.016,0.117,0.051,-2.24,1.90,0.1968,-0.6270,0.7668,0.000,0.116,-1.465,-11.06,-38.51,0.9624,0.0643,0.2993,-4.029,-0.440,0.539,-71.02,11.64,0.03,0.03,0.01
1446,2721.39,2462.71,2307.18,0.0471,0.0427,1.1997,0.001,-0.097,0.082,-2.24,1.90,0.1924,-0.6194,0.7732,0.565,-0.037,-1.648,-11.06,-38.50,0.9624,0.0710,0.2892,-3.281,0.598,-0.728,-71.05,11.62,0.03,0.03,0.01
1466,1905.05,2062.20,1901.03,0.0459,0.0400,1.1948,0.062,0.086,-0.117,-2.24,1.90,0.1919,-0.6199,0.7737,0.046,-0.022,-1.450,-11.06,-38.51,0.9653,0.0758,0.2899,-2.900,2.613,-1.385,-71.03,11.63,0.03,0.04,0.01
1486,623.74,904.18,979.93,0.0449,0.0403,1.1992,-0.030,0.117,-0.025,-2.23,1.90,0.1946,-0.6204,0.7766,0.137,-0.098,-1.480,-11.06,-38.51,0.9666,0.0803,0.3088,-2.625,3.117,-1.430,-70.98,11.63,0.03,0.04,0.01
1507,581.83,626.15,790.55,0.0452,0.0400,1.1995,-0.014,0.010,0.082,-2.23,1.90,0.1919,-0.6226,0.7764,0.260,-0.052,-1.404,-11.06,-38.51,0.9681,0.0876,0.3209,-3.007,1.804,-0.850,-70.95,11.65,0.03,0.05,0.02
1527,1633.48,1452.16,1514.21,0.0417,0.0400,1.1965,-0.030,0.025,0.082,-2.23,1.90,0.1938,-0.6211,0.7700,0.534,0.009,-1.526,-11.06,-38.50,0.9646,0.0902,0.3157,-3.694,-0.150,0.249,-70.96,11.66,0.02,0.05,0.02
1547,2758.46,2503.00,2351.50,0.0486,0.0413,1.1987,0.047,-0.082,0.051,-2.23,1.90,0.1958,-0.6233,0.7764,0.168,-0.129,-1.465,-11.06,-38.50,0.9690,0.0861,0.2997,-4.091,-0.791,1.348,-71.00,11.67,0.02,0.05,0.03
1567,1773.70,1959.85,1818.83,0.0486,0.0403,1.1936,-0.030,0.025,0.082,-2.23,1.90,0.1929,-0.6238,0.7778,0.229,-0.037,-1.404,-11.06,-38.50,0.9640,0.0719,0.2942,-3.892,0.201,1.547,-71.02,11.63,0.02,0.05,0.03
1587,548.79,817.14,906.59,0.0457,0.0383,1.2019,0.077,0.040,0.097,-2.23,1.90,0.1936,-0.6238,0.7725,0.290,-0.037,-1.373,-11.06,-38.51,0.9587,0.0665,0.2968,-3.251,1.484,0.264,-71.02,11.59,0.02,0.05,0.03
1607,640.66,665.64,838.10,0.0481,0.0356,1.2017,0.062,0.056,0.082,-2.23,1.90,0.1936,-0.6213,0.7783,0.076,-0.022,-1.495,-11.06,-38.51,0.9645,0.0648,0.3066,-2.961,2.201,-1.308,-71.00,11.54,0.02,0.05,0.03
1627,1794.65,1575.46,1618.17,0.0483,0.0374,1.1987,-0.060,0.010,0.005,-2.23,1.90,0.1943,-0.6179,0.7683,0.183,-0.129,-1.557,-11.06,-38.51,0.9668,0.0812,0.3087,-2.808,1.942,-2.117,-70.97,11.55,0.02,0.06,0.03
1647,2761.69,2544.10,2346.67,0.0476,0.0396,1.1965,0.016,0.056,-0.071,-2.23,1.90,0.1926,-0.6206,0.7668,0.122,-0.022,-1.495,-11.06,-38.52,0.9663,0.0944,0.3113,-3.266,1.300,-1.156,-70.96,11.59,0.02,0.06,0.04
1667,1598.83,1809.96,1713.26,0.0466,0.0400,1.2070,-0.045,0.071,-0.040,-2.23,1.90,0.1975,-0.6208,0.7727,0.305,-0.129,-1.511,-11.07,-38.52,0.9697,0.0942,0.3096,-3.541,0.827,0.539,-70.95,11.63,0.02,0.06,0.04
1687,502.05,747.03,849.38,0.0486,0.0410,1.1975,-0.045,0.101,-0.117,-2.23,1.90,0.1895,-0.6221,0.7678,-0.305,0.055,-1.404,-11.06,-38.53,0.9663,0.0822,0.3120,-3.862,0.323,1.608,-70.96,11.61,0.02,0.07,0.05
1707,720.44,705.13,877.58,0.0479,0.0354,1.1995,0.016,0.040,-0.071,-2.23,1.89,0.1953,-0.6240,0.7734,0.519,-0.113,-1.495,-11.07,-38.53,0.9657,0.0690,0.3031,-3.907,0.003,1.180,-70.98,11.56,0.02,0.07,0.05
1727,1944.54,1702.78,1740.66,0.0461,0.0415,1.1975,0.047,-0.067,0.036,-2.23,1.90,0.1914,-0.6201,0.7700,0.183,0.116,-1.480,-11.06,-38.53,0.9614,0.0659,0.2924,-3.526,0.384,-0.163,-71.01,11.51,0.02,0.07,0.05
1747,2735.90,2561.03,2358.75,0.0476,0.0403,1.1980,-0.030,0.071,-0.056,-2.23,1.90,0.1917,-0.6213,0.7734,0.061,-0.006,-1.358,-11.06,-38.54,0.9661,0.0712,0.2930,-2.991,1.621,-1.186,-71.01,11.50,0.02,0.07,0.05
1767,1457.00,1701.98,1611.72,0.0474,0.0361,1.1936,-0.060,0.056,0.051,-2.23,1.89,0.1931,-0.6235,0.7769,0.290,0.039,-1.602,-11.06,-38.53,0.9677,0.0802,0.3035,-2.747,2.537,-1.400,-70.98,11.51,0.02,0.07,0.05
1787,481.90,718.02,814.73,0.0457,0.0396,1.2019,0.016,-0.051,-0.040,-2.23,1.89,0.1917,-0.6211,0.7749,0.199,0.009,-1.587,-11.05,-38.53,0.9679,0.0824,0.3119,-2.839,2.262,-0.927,-70.95,11.52,0.02,0.07,0.06
1807,800.22,760.73,915.46,0.0432,0.0391,1.1987,-0.014,0.056,0.082,-2.22,1.89,0.1953,-0.6208,0.7747,0.199,0.039,-1.480,-11.06,-38.53,0.9652,0.0861,0.3181,-3.342,0.980,-0.209,-70.93,11.53,0.02,0.08,0.06
1828,2127.47,1871.21,1867.18,0.0459,0.0415,1.1946,-0.030,0.010,0.036,-2.22,1.89,0.1917,-0.6233,0.7717,0.031,0.009,-1.404,-11.05,-38.54,0.9674,0.0848,0.3090,-3.800,-0.348,0.570,-70.95,11.53,0.02,0.08,0.06
1848,2684.32,2557.00,2345.86,0.0432,0.0396,1.1941,0.123,-0.082,-0.025,-2.22,1.90,0.1965,-0.6208,0.7742,0.489,0.009,-1.495,-11.06,-38.54,0.9662,0.0809,0.2972,-4.029,-0.303,1.196,-70.99,11.52,0.01,0.08,0.06
1868,1302.27,1569.82,1491.65,0.0459,0.0381,1.1941,0.001,0.056,0.066,-2.22,1.89,0.1931,-0.6179,0.7747,0.092,0.039,-1.328,-11.05,-38.53,0.9633,0.0728,0.2972,-3.648,0.705,0.936,-71.00,11.50,0.01,0.08,0.06
1888,467.40,657.58,772.82,0.0464,0.0381,1.1968,0.077,-0.097,-0.163,-2.22,1.89,0.1929,-0.6230,0.7676,0.046,-0.067,-1.526,-11.06,-38.54,0.9625,0.0645,0.2970,-3.037,1.728,-0.255,-71.00,11.45,0.01,0.08,0.06
1908,920.29,849.38,1001.68,0.0476,0.0405,1.1975,0.047,-0.021,-0.025,-2.22,1.90,0.1963,-0.6248,0.7754,0.366,0.039,-1.618,-11.06,-38.54,0.9650,0.0687,0.3048,-2.900,1.987,-1.491,-70.98,11.42,0.01,0.08,0.06
1928,2229.01,1971.94,1946.96,0.0486,0.0396,1.2009,-0.030,0.025,0.066,-2.23,1.89,0.1943,-0.6228,0.7754,0.137,0.024,-1.450,-11.06,-38.54,0.9694,0.0830,0.3070,-2.823,1.881,-1.797,-70.96,11.44,0.01,0.08,0.06
1948,2605.35,2532.82,2307.99,0.0459,0.0410,1.1960,0.016,0.071,0.051,-2.22,1.90,0.1902,-0.6199,0.7778,0.137,-0.098,-1.434,-11.05,-38.54,0.9656,0.0946,0.3104,-3.190,1.300,-0.774,-70.94,11.48,0.01,0.08,0.07
1968,1197.51,1485.20,1431.21,0.0474,0.0425,1.1985,-0.014,0.010,0.097,-2.22,1.90,0.1865,-0.6240,0.7720,0.168,-0.037,-1.480,-11.05,-38.55,0.9652,0.0883,0.3160,-3.678,0.873,0.829,-70.93,11.50,0.01,0.08,0.07
1988,453.70,631.79,760.73,0.0454,0.0444,1.1963,0.077,0.040,-0.071,-2.22,1.91,0.1953,-0.6216,0.7749,0.519,0.085,-1.572,-11.05,-38.54,0.9659,0.0760,0.3119,-3.862,0.232,1.547,-70.94,11.46,0.01,0.09,0.07
2008,1012.16,908.21,1078.24,0.0479,0.0398,1.2012,-0.014,0.010,-0.010,-2.22,1.90,0.1956,-0.6272,0.7756,-0.183,0.131,-1.373,-11.04,-38.55,0.9615,0.0671,0.3027,-3.709,-0.043,0.829,-70.96,11.41,0.01,0.09,0.07
2028,2367.62,2086.37,2035.60,0.0449,0.0393,1.1985,-0.014,-0.051,-0.040,-2.22,1.90,0.1914,-0.6250,0.7734,0.199,-0.022,-1.618,-11.04,-38.56,0.9624,0.0709,0.2942,-3.434,0.491,-0.407,-70.99,11.39,0.02,0.09,0.07
2048,2486.89,2451.43,2235.46,0.0435,0.0403,1.1970,0.016,-0.005,0.005,-2.22,1.90,0.1912,-0.6248,0.7751,0.366,-0.006,-1.511,-11.04,-38.56,0.9658,0.0739,0.2924,-2.930,1.743,-1.186,-70.99,11.38,0.02,0.09,0.07
2068,1036.34,1348.21,1297.44,0.0476,0.0393,1.2019,-0.030,-0.005,-0.086,-2.22,1.90,0.1958,-0.6191,0.7688,0.260,0.009,-1.495,-11.04,-38.56,0.9666,0.0833,0.3011,-2.610,2.552,-1.186,-70.96,11.41,0.02,0.09,0.07
2088,456.12,606.81,760.73,0.0479,0.0415,1.1958,-0.014,0.071,0.112,-2.22,1.90,0.1931,-0.6204,0.7751,0.061,-0.083,-1.526,-11.04,-38.56,0.9650,0.0854,0.3180,-3.022,2.049,-0.575,-70.92,11.43,0.02,0.09,0.07
2108,1141.90,1029.89,1152.38,0.0459,0.0400,1.1997,0.031,-0.005,0.127,-2.22,1.91,0.1951,-0.6172,0.7710,0.428,-0.006,-1.526,-11.05,-38.55,0.9648,0.0883,0.3142,-3.571,0.629,0.035,-70.92,11.44,0.02,0.09,0.08
2129,2486.08,2197.58,2116.19,0.0510,0.0403,1.2021,-0.014,-0.097,-0.086,-2.23,1.91,0.1948,-0.6196,0.7795,0.107,0.055,-1.557,-11.04,-38.55,0.9648,0.0842,0.3108,-3.877,-0.257,0.615,-70.93,11.44,0.02,0.10,0.08
2149,2341.83,2379.71,2191.94,0.0486,0.0371,1.1987,-0.060,-0.051,0.036,-2.23,1.90,0.1960,-0.6226,0.7712,-0.046,-0.006,-1.419,-11.05,-38.56,0.9653,0.0785,0.2999,-3.923,0.049,0.829,-70.96,11.43,0.02,0.10,0.08
2169,916.26,1224.91,1211.21,0.0481,0.0376,1.2000,0.016,-0.128,-0.071,-2.23,1.90,0.1912,-0.6201,0.7776,0.397,-0.022,-1.618,-11.04,-38.55,0.9640,0.0707,0.2955,-3.465,1.178,0.509,-70.97,11.40,0.02,0.10,0.08
2189,468.21,610.84,734.95,0.0442,0.0396,1.1936,0.062,0.010,0.005,-2.23,1.90,0.1919,-0.6201,0.7764,0.000,-0.006,-1.328,-11.04,-38.55,0.9630,0.0703,0.3064,-3.052,1.835,-0.392,-70.95,11.37,0.02,0.10,0.08
2209,1226.52,1108.86,1221.69,0.0476,0.0381,1.2000,0.077,-0.036,0.005,-2.23,1.90,0.1909,-0.6240,0.7764,0.061,0.024,-1.495,-11.04,-38.55,0.9635,0.0765,0.3098,-2.991,1.667,-1.308,-70.93,11.36,0.02,0.10,0.08
2229,2576.34,2300.73,2190.33,0.0503,0.0393,1.1968,-0.060,0.025,0.112,-2.23,1.90,0.1946,-0.6230,0.7761,0.519,-0.006,-1.572,-11.04,-38.55,0.9688,0.0840,0.3062,-3.129,1.224,-1.324,-70.93,11.38,0.02,0.11,0.08
2249,2116.19,2215.31,2055.75,0.0493,0.0420,1.1978,0.047,-0.021,0.021,-2.24,1.90,0.1902,-0.6201,0.7744,0.260,0.055,-1.419,-11.03,-38.54,0.9689,0.0869,0.3076,-3.312,1.132,-0.270,-70.92,11.40,0.02,0.11,0.09
2269,769.60,1066.15,1082.27,0.0505,0.0417,1.1960,0.001,0.071,0.127,-2.24,1.90,0.1938,-0.6245,0.7708,0.290,-0.052,-1.572,-11.04,-38.55,0.9669,0.0823,0.3090,-3.526,1.087,0.707,-70.91,11.40,0.03,0.11,0.09
2289,531.87,610.84,766.37,0.0464,0.0400,1.1992,-0.030,0.025,0.127,-2.24,1.90,0.1926,-0.6194,0.7759,0.046,0.070,-1.541,-11.03,-38.55,0.9666,0.0732,0.3048,-3.587,0.705,0.860,-70.92,11.38,0.03,0.12,0.09
2309,1385.27,1228.94,1338.53,0.0449,0.0396,1.2004,0.031,0.025,0.051,-2.24,1.90,0.1909,-0.6201,0.7756,0.412,0.085,-1.602,-11.03,-38.54,0.9602,0.0731,0.3079,-3.556,0.339,0.066,-70.93,11.35,0.03,0.12,0.09
2329,2622.27,2359.56,2236.26,0.0457,0.0398,1.2007,-0.106,0.056,0.082,-2.23,1.90,0.1956,-0.6174,0.7666,0.092,-0.083,-1.557,-11.03,-38.55,0.9656,0.0752,0.2954,-3.312,0.858,-0.667,-70.95,11.34,0.03,0.12,0.09
2349,2017.07,2153.26,1976.78,0.0483,0.0374,1.1946,-0.014,0.056,0.005,-2.23,1.90,0.1895,-0.6228,0.7747,0.153,-0.129,-1.450,-11.03,-38.55,0.9656,0.0828,0.3002,-3.083,1.789,-0.743,-70.94,11.36,0.03,0.12,0.09
2369,722.86,1022.64,1044.40,0.0439,0.0417,1.1963,-0.014,0.056,0.112,-2.23,1.90,0.1953,-0.6238,0.7830,0.351,-0.037,-1.450,-11.03,-38.54,0.9647,0.0801,0.3029,-3.068,1.957,-0.484,-70.92,11.37,0.03,0.12,0.09
2389,550.40,639.85,776.85,0.0461,0.0369,1.1956,-0.045,-0.051,-0.010,-2.23,1.90,0.1948,-0.6233,0.7778,0.122,-0.006,-1.541,-11.03,-38.54,0.9667,0.0839,0.3164,-3.388,1.239,-0.163,-70.90,11.37,0.03,0.13,0.09
2409,1469.89,1317.58,1387.69,0.0464,0.0391,1.2014,0.016,-0.067,0.112,-2.23,1.90,0.1921,-0.6218,0.7725,0.183,-0.037,-1.511,-11.03,-38.55,0.9692,0.0815,0.3073,-3.587,0.369,-0.148,-70.91,11.37,0.03,0.13,0.10
2429,2628.72,2408.72,2262.05,0.0422,0.0396,1.2034,0.001,0.117,0.082,-2.23,1.90,0.1936,-0.6233,0.7761,0.137,0.024,-1.526,-11.03,-38.55,0.9646,0.0834,0.3005,-3.556,0.155,0.188,-70.93,11.38,0.03,0.13,0.10
2449,1887.33,2036.41,1896.19,0.0474,0.0403,1.2051,-0.045,-0.051,0.005,-2.23,1.90,0.1946,-0.6248,0.7727,0.412,0.009,-1.465,-11.03,-38.55,0.9663,0.0795,0.2971,-3.510,0.949,0.402,-70.94,11.39,0.03,0.13,0.09
2470,653.55,920.29,987.99,0.0459,0.0391,1.1978,-0.030,0.086,-0.102,-2.22,1.90,0.1919,-0.6245,0.7739,0.015,-0.022,-1.434,-11.03,-38.55,0.9653,0.0708,0.3010,-3.266,1.591,0.173,-70.94,11.36,0.03,0.13,0.09
2490,627.77,661.61,813.11,0.0454,0.0356,1.2002,0.092,0.071,-0.025,-2.22,1.89,0.1899,-0.6226,0.7742,0.015,0.039,-1.511,-11.03,-38.56,0.9634,0.0706,0.3085,-3.083,1.346,-0.484,-70.93,11.33,0.03,0.13,0.09
2510,1709.23,1509.38,1561.76,0.0461,0.0415,1.1936,0.016,0.056,0.005,-2.22,1.90,0.1960,-0.6206,0.7791,0.336,0.070,-1.602,-11.03,-38.55,0.9626,0.0785,0.3065,-3.190,1.148,-1.095,-70.92,11.33,0.03,0.13,0.09
2530,2679.49,2489.30,2306.37,0.0483,0.0388,1.2039,0.031,-0.005,0.005,-2.22,1.90,0.1953,-0.6250,0.7722,0.229,-0.037,-1.480,-11.03,-38.56,0.9667,0.0830,0.3010,-3.358,0.903,-0.743,-70.93,11.34,0.03,0.13,0.09
2550,1670.55,1859.12,1746.30,0.0483,0.0452,1.1985,-0.076,-0.005,0.143,-2.22,1.90,0.1909,-0.6230,0.7783,0.366,-0.067,-1.541,-11.03,-38.55,0.9692,0.0845,0.3076,-3.327,1.331,0.066,-70.92,11.36,0.03,0.13,0.10
2570,574.58,813.92,880.00,0.0479,0.0364,1.1990,0.062,-0.036,0.021,-2.23,1.90,0.1931,-0.6221,0.7732,0.076,-0.022,-1.343,-11.03,-38.55,0.9652,0.0793,0.3102,-3.526,1.392,0.509,-70.91,11.35,0.04,0.13,0.10
2590,734.95,717.22,889.67,0.0449,0.0405,1.1975,-0.045,0.101,0.051,-2.22,1.90,0.1973,-0.6182,0.7773,0.321,0.009,-1.541,-11.03,-38.55,0.9636,0.0734,0.3114,-3.465,0.736,0.203,-70.91,11.32,0.04,0.13,0.10
2610,1886.52,1639.12,1683.44,0.0449,0.0413,1.2021,0.031,0.086,-0.025,-2.22,1.90,0.1919,-0.6252,0.7722,0.168,-0.052,-1.465,-11.03,-38.55,0.9641,0.0756,0.3033,-3.495,0.278,-0.316,-70.92,11.30,0.03,0.13,0.10
2630,2674.65,2508.64,2318.46,0.0479,0.0398,1.2026,-0.076,0.040,-0.025,-2.22,1.90,0.1968,-0.6250,0.7708,0.168,-0.083,-1.526,-11.04,-38.56,0.9672,0.0807,0.2960,-3.404,0.720,-0.362,-70.94,11.31,0.03,0.13,0.10
2650,1527.11,1764.03,1655.24,0.0471,0.0386,1.1956,0.016,0.040,0.082,-2.22,1.90,0.1907,-0.6274,0.7805,0.214,0.070,-1.648,-11.03,-38.56,0.9634,0.0809,0.2994,-3.297,1.453,-0.102,-70.94,11.33,0.03,0.13,0.10
2670,525.42,758.32,858.24,0.0461,0.0376,1.1982,0.001,0.040,-0.071,-2.22,1.89,0.1904,-0.6213,0.7717,-0.015,0.024,-1.465,-11.03,-38.57,0.9661,0.0759,0.3074,-3.190,1.758,0.020,-70.92,11.31,0.03,0.13,0.10
2690,790.55,759.93,927.55,0.0469,0.0405,1.1990,0.108,-0.067,-0.010,-2.22,1.90,0.1936,-0.6211,0.7708,0.290,-0.006,-1.587,-11.03,-38.57,0.9658,0.0747,0.3064,-3.404,1.087,-0.301,-70.92,11.29,0.03,0.13,0.10
2711,1981.61,1764.84,1772.09,0.0474,0.0396,1.1995,-0.014,-0.097,0.036,-2.22,1.90,0.1934,-0.6223,0.7683,0.137,-0.006,-1.450,-11.03,-38.57,0.9592,0.0801,0.3025,-3.526,0.522,-0.392,-70.93,11.30,0.03,0.13,0.10
2731,2645.64,2523.96,2307.99,0.0488,0.0432,1.2000,0.001,-0.067,0.127,-2.23,1.90,0.1936,-0.6257,0.7788,0.626,-0.022,-1.709,-11.03,-38.56,0.9697,0.0820,0.2976,-3.526,0.766,-0.240,-70.94,11.31,0.04,0.13,0.10
2751,1379.63,1628.64,1547.25,0.0488,0.0405,1.1978,-0.030,0.040,0.097,-2.23,1.90,0.1941,-0.6211,0.7766,0.031,0.070,-1.297,-11.03,-38.56,0.9662,0.0826,0.2992,-3.388,1.545,0.142,-70.94,11.33,0.04,0.13,0.10
2771,489.16,698.68,806.67,0.0427,0.0437,1.1953,0.031,0.025,0.051,-2.22,1.91,0.1931,-0.6206,0.7759,0.412,-0.083,-1.495,-11.03,-38.56,0.9634,0.0737,0.3077,-3.266,1.682,0.096,-70.92,11.30,0.04,0.13,0.10
2791,938.02,859.85,1017.00,0.0471,0.0447,1.1958,0.001,0.025,0.051,-2.22,1.91,0.1946,-0.6248,0.7778,0.214,-0.113,-1.557,-11.03,-38.56,0.9656,0.0760,0.3135,-3.434,1.041,-0.102,-70.91,11.28,0.04,0.13,0.10
2811,2203.22,1934.87,1915.53,0.0491,0.0403,1.2004,0.031,0.040,0.036,-2.23,1.91,0.1968,-0.6187,0.7710,-0.244,0.009,-1.236,-11.03,-38.57,0.9648,0.0781,0.3014,-3.251,0.445,-0.331,-70.93,11.28,0.04,0.13,0.10
2831,2591.65,2510.26,2282.20,0.0439,0.0374,1.1975,-0.014,0.040,0.066,-2.22,1.91,0.1887,-0.6189,0.7751,0.351,0.024,-1.572,-11.03,-38.56,0.9673,0.0808,0.3037,-3.526,0.720,-0.087,-70.93,11.29,0.04,0.13,0.10
2851,1181.39,1465.05,1419.12,0.0491,0.0366,1.1995,-0.137,-0.005,-0.086,-2.22,1.90,0.1924,-0.6260,0.7683,-0.137,-0.083,-1.480,-11.03,-38.58,0.9684,0.0823,0.3025,-3.678,1.178,0.173,-70.93,11.29,0.04,0.13,0.10
2871,472.23,644.69,759.12,0.0466,0.0398,1.2026,0.047,-0.021,0.097,-2.22,1.90,0.1912,-0.6230,0.7717,0.366,-0.006,-1.618,-11.03,-38.58,0.9653,0.0771,0.3042,-3.465,1.316,0.112,-70.93,11.28,0.04,0.13,0.10
2891,1024.25,925.93,1079.05,0.0469,0.0391,1.2009,0.001,-0.021,0.021,-2.23,1.90,0.1968,-0.6194,0.7764,0.168,0.009,-1.511,-11.03,-38.57,0.9626,0.0742,0.3060,-3.251,1.071,-0.255,-70.93,11.27,0.04,0.13,0.10
2911,2323.30,2062.20,2009.01,0.0425,0.0410,1.2019,-0.014,-0.036,0.021,-2.22,1.90,0.1899,-0.6216,0.7773,0.687,-0.037,-1.602,-11.03,-38.56,0.9639,0.0806,0.2986,-3.358,1.010,-0.575,-70.93,11.28,0.04,0.13,0.10
2931,2451.43,2419.19,2220.15,0.0486,0.0422,1.1970,-0.060,0.071,-0.025,-2.22,1.90,0.1953,-0.6199,0.7739,0.122,-0.129,-1.358,-11.03,-38.56,0.9659,0.0809,0.2987,-3.327,1.270,-0.469,-70.93,11.29,0.04,0.13,0.10
2951,1021.03,1321.61,1298.24,0.0457,0.0420,1.2036,-0.060,0.040,-0.025,-2.22,1.90,0.1936,-0.6211,0.7744,0.275,0.085,-1.480,-11.03,-38.56,0.9666,0.0796,0.3099,-3.113,1.743,-0.163,-70.91,11.29,0.04,0.13,0.10
2972,487.55,625.35,749.45,0.0491,0.0430,1.2009,0.001,0.162,0.036,-2.22,1.91,0.1912,-0.6233,0.7737,0.611,-0.022,-1.602,-11.03,-38.55,0.9673,0.0807,0.3086,-3.220,1.453,0.035,-70.90,11.29,0.04,0.14,0.10
2992,1144.32,1029.89,1162.86,0.0452,0.0400,1.1931,0.031,-0.005,-0.147,-2.22,1.91,0.1941,-0.6179,0.7688,-0.214,0.024,-1.328,-11.03,-38.56,0.9646,0.0798,0.3145,-3.571,0.674,-0.041,-70.90,11.28,0.04,0.14,0.10
3012,2487.69,2207.25,2119.41,0.0486,0.0398,1.2024,0.001,-0.021,0.097,-2.22,1.91,0.1958,-0.6196,0.7756,0.382,-0.037,-1.557,-11.03,-38.56,0.9658,0.0793,0.3073,-3.709,0.201,-0.056,-70.91,11.27,0.04,0.14,0.10
3032,2333.77,2370.84,2170.18,0.0459,0.0410,1.1990,0.062,0.056,-0.040,-2.22,1.91,0.1943,-0.6226,0.7773,-0.153,0.055,-1.312,-11.03,-38.56,0.9690,0.0802,0.2976,-3.495,0.613,0.173,-70.93,11.28,0.04,0.14,0.10
3052,896.92,1216.04,1174.14,0.0464,0.0403,1.1997,0.077,0.040,-0.040,-2.22,1.91,0.1912,-0.6211,0.7744,0.137,-0.037,-1.618,-11.03,-38.56,0.9663,0.0795,0.2996,-3.312,1.178,0.066,-70.93,11.29,0.04,0.14,0.10
3072,502.86,597.14,755.09,0.0479,0.0374,1.1965,-0.030,-0.036,0.005,-2.22,1.91,0.1897,-0.6238,0.7717,0.183,-0.022,-1.480,-11.03,-38.57,0.9662,0.0750,0.3042,-3.266,1.438,-0.087,-70.93,11.27,0.04,0.14,0.10
3092,1298.24,1142.71,1276.48,0.0452,0.0396,1.2009,-0.030,-0.005,-0.102,-2.22,1.91,0.1953,-0.6233,0.7727,0.397,-0.052,-1.648,-11.03,-38.56,0.9672,0.0751,0.3060,-3.205,1.438,-0.530,-70.92,11.26,0.04,0.14,0.10
3112,2609.38,2326.52,2192.75,0.0496,0.0393,1.1968,0.092,0.056,-0.102,-2.22,1.91,0.1917,-0.6223,0.7773,0.366,0.024,-1.572,-11.03,-38.56,0.9663,0.0818,0.3032,-3.251,1.316,-0.820,-70.91,11.27,0.04,0.14,0.10
3132,2145.20,2237.88,2062.20,0.0461,0.0420,1.1965,-0.060,0.010,0.234,-2.22,1.91,0.1924,-0.6189,0.7722,0.015,-0.037,-1.404,-11.03,-38.56,0.9658,0.0846,0.3059,-3.358,1.132,-0.575,-70.91,11.29,0.04,0.14,0.10
3152,745.42,1062.93,1087.11,0.0454,0.0420,1.1951,0.001,-0.067,-0.025,-2.22,1.91,0.1929,-0.6240,0.7844,0.901,-0.006,-1.740,-11.02,-38.54,0.9683,0.0840,0.3071,-3.312,1.270,0.112,-70.90,11.31,0.04,0.14,0.10
3172,515.75,614.87,747.84,0.0461,0.0452,1.2007,-0.076,-0.051,-0.086,-2.22,1.92,0.1929,-0.6230,0.7769,-0.244,0.116,-1.434,-11.02,-38.55,0.9631,0.0774,0.3082,-3.465,1.041,0.829,-70.90,11.29,0.04,0.14,0.10
3192,1423.96,1237.00,1349.82,0.0464,0.0413,1.1980,-0.076,-0.021,0.005,-2.22,1.92,0.1929,-0.6218,0.7717,0.183,-0.098,-1.541,-11.02,-38.55,0.9614,0.0695,0.3096,-3.678,0.339,0.509,-70.91,11.25,0.04,0.14,0.10
3212,2681.90,2409.52,2262.05,0.0474,0.0366,1.1917,-0.106,-0.021,0.021,-2.22,1.91,0.1934,-0.6243,0.7729,0.015,-0.037,-1.495,-11.02,-38.56,0.9640,0.0731,0.2998,-3.526,0.262,-0.377,-70.93,11.23,0.04,0.14,0.10
3233,1996.12,2116.19,1959.05,0.0466,0.0435,1.2053,0.031,0.025,-0.025,-2.22,1.91,0.1938,-0.6228,0.7744,0.168,0.024,-1.419,-11.02,-38.56,0.9673,0.0779,0.2899,-3.266,0.980,-0.850,-70.95,11.24,0.04,0.14,0.10
3253,658.39,950.11,1014.58,0.0437,0.0352,1.2041,-0.106,-0.051,0.189,-2.22,1.91,0.1921,-0.6230,0.7739,0.565,-0.052,-1.541,-11.02,-38.56,0.9663,0.0782,0.2955,-3.068,1.957,-0.728,-70.94,11.25,0.04,0.14,0.10
3273,554.43,601.98,776.85,0.0471,0.0364,1.2004,0.077,0.056,-0.040,-2.22,1.91,0.1909,-0.6238,0.7715,-0.015,0.055,-1.373,-11.02,-38.57,0.9657,0.0818,0.3037,-3.113,2.094,-0.316,-70.92,11.27,0.04,0.14,0.10
3293,1541.61,1359.49,1446.52,0.0496,0.0427,1.2083,-0.030,0.132,0.021,-2.22,1.91,0.1926,-0.6208,0.7695,0.763,0.070,-1.602,-11.02,-38.56,0.9635,0.0795,0.3160,-3.419,1.071,0.020,-70.91,11.26,0.04,0.14,0.10
3313,2720.59,2474.80,2309.60,0.0422,0.0398,1.2002,0.001,0.071,0.097,-2.21,1.91,0.1946,-0.6196,0.7769,0.244,-0.006,-1.434,-11.02,-38.55,0.9657,0.0811,0.3065,-3.648,0.155,0.234,-70.92,11.26,0.04,0.14,0.10
3333,1856.70,2025.13,1883.30,0.0486,0.0378,1.1946,0.016,-0.036,0.066,-2.22,1.91,0.1992,-0.6230,0.7727,0.397,-0.037,-1.526,-11.03,-38.55,0.9623,0.0798,0.3016,-3.694,0.339,0.402,-70.94,11.26,0.04,0.14,0.10
3353,593.92,872.75,943.66,0.0474,0.0400,1.2019,0.001,-0.051,0.127,-2.22,1.91,0.1899,-0.6211,0.7842,0.107,-0.113,-1.557,-11.02,-38.55,0.9622,0.0747,0.2960,-3.388,1.178,0.402,-70.94,11.25,0.04,0.14,0.10
3373,626.96,637.44,811.50,0.0469,0.0430,1.2002,0.016,-0.005,0.158,-2.22,1.91,0.1943,-0.6223,0.7773,0.214,-0.098,-1.495,-11.02,-38.54,0.9642,0.0721,0.3022,-3.052,1.591,-0.362,-70.94,11.23,0.04,0.14,0.10
3393,1714.87,1499.71,1563.37,0.0457,0.0430,1.1973,-0.106,0.056,0.097,-2.22,1.91,0.1909,-0.6267,0.7766,0.015,-0.037,-1.541,-11.02,-38.55,0.9622,0.0735,0.3097,-3.083,1.484,-1.171,-70.92,11.21,0.04,0.14,0.10
3413,2722.20,2519.93,2336.19,0.0481,0.0400,1.1953,0.031,0.071,0.127,-2.22,1.91,0.1953,-0.6257,0.7739,0.153,0.024,-1.541,-11.02,-38.56,0.9666,0.0847,0.3070,-3.083,0.934,-1.095,-70.92,11.24,0.04,0.14,0.10
3433,1724.54,1916.34,1801.10,0.0486,0.0383,1.2034,0.031,-0.005,-0.147,-2.22,1.91,0.1921,-0.6230,0.7764,0.183,-0.022,-1.465,-11.02,-38.56,0.9686,0.0914,0.3021,-3.526,0.842,-0.102,-70.92,11.28,0.04,0.14,0.10
3453,553.63,817.95,896.92,0.0449,0.0400,1.2014,0.047,-0.051,-0.117,-2.22,1.91,0.1909,-0.6252,0.7715,0.107,0.009,-1.434,-11.02,-38.56,0.9658,0.0815,0.3010,-3.663,0.705,1.028,-70.93,11.28,0.04,0.13,0.09
3473,684.18,677.73,850.99,0.0425,0.0393,1.1987,-0.045,-0.082,0.127,-2.22,1.91,0.1919,-0.6265,0.7734,0.473,-0.067,-1.526,-11.02,-38.56,0.9678,0.0713,0.3041,-3.663,0.339,1.165,-70.95,11.25,0.04,0.13,0.09
3493,1826.08,1610.92,1662.49,0.0466,0.0369,1.1936,0.016,-0.051,-0.010,-2.22,1.91,0.1929,-0.6245,0.7720,-0.046,-0.037,-1.495,-11.02,-38.57,0.9626,0.0682,0.2953,-3.617,0.461,0.173,-70.97,11.21,0.04,0.13,0.09
3513,2733.48,2532.82,2342.64,0.0466,0.0408,1.2004,-0.045,-0.082,-0.056,-2.22,1.91,0.1941,-0.6233,0.7703,0.626,-0.113,-1.663,-11.02,-38.57,0.9655,0.0697,0.2961,-3.068,1.255,-1.110,-70.98,11.19,0.04,0.13,0.09
3533,1560.95,1790.62,1689.89,0.0515,0.0403,1.1970,-0.060,-0.082,-0.040,-2.23,1.91,0.1995,-0.6245,0.7778,0.061,-0.006,-1.343,-11.03,-38.57,0.9659,0.0776,0.3003,-2.869,2.247,-1.491,-70.96,11.20,0.04,0.12,0.08
3554,510.11,751.87,852.60,0.0466,0.0378,1.2002,-0.121,0.101,0.036,-2.23,1.90,0.1970,-0.6218,0.7761,0.351,0.024,-1.434,-11.03,-38.57,0.9653,0.0845,0.3110,-2.778,2.430,-1.049,-70.92,11.23,0.04,0.13,0.08
3574,797.80,760.73,921.10,0.0461,0.0403,1.2002,-0.152,-0.021,-0.010,-2.23,1.90,0.1887,-0.6211,0.7773,0.290,-0.052,-1.648,-11.02,-38.56,0.9650,0.0858,0.3184,-3.358,1.224,0.035,-70.90,11.24,0.04,0.13,0.09
3594,2062.20,1813.19,1818.02,0.0469,0.0398,1.1958,-0.030,-0.021,0.036,-2.23,1.90,0.1931,-0.6189,0.7729,-0.137,-0.022,-1.373,-11.03,-38.57,0.9653,0.0822,0.3174,-3.862,-0.348,0.783,-70.92,11.23,0.04,0.13,0.09
3614,2683.52,2539.27,2326.52,0.0447,0.0400,1.1958,-0.014,0.025,0.021,-2.22,1.90,0.1926,-0.6211,0.7751,0.366,0.009,-1.526,-11.02,-38.56,0.9646,0.0785,0.2999,-4.106,-0.654,0.982,-70.95,11.22,0.04,0.13,0.09
3634,1324.84,1590.77,1533.55,0.0457,0.0383,1.1973,0.047,-0.036,0.204,-2.22,1.90,0.1895,-0.6260,0.7717,-0.046,-0.037,-1.434,-11.02,-38.57,0.9662,0.0715,0.2871,-3.755,0.354,0.493,-70.99,11.20,0.04,0.12,0.08
3654,489.96,690.62,807.47,0.0510,0.0393,1.1960,-0.060,-0.005,-0.086,-2.23,1.90,0.1902,-0.6221,0.7754,0.321,-0.022,-1.587,-11.02,-38.57,0.9651,0.0679,0.2887,-2.991,1.758,-0.270,-70.99,11.18,0.04,0.12,0.08
3674,872.75,817.95,956.56,0.0503,0.0393,1.2014,-0.030,0.040,-0.147,-2.23,1.89,0.1963,-0.6248,0.7751,0.214,-0.006,-1.328,-11.02,-38.57,0.9650,0.0707,0.3037,-2.701,2.400,-1.217,-70.97,11.17,0.04,0.12,0.08
3694,2168.57,1921.17,1892.97,0.0474,0.0371,1.2000,0.016,0.086,0.097,-2.23,1.89,0.1951,-0.6228,0.7678,0.397,-0.067,-1.465,-11.02,-38.57,0.9653,0.0824,0.3112,-2.808,1.896,-1.644,-70.94,11.18,0.04,0.12,0.08
3714,2611.79,2501.39,2303.96,0.0486,0.0427,1.2007,0.016,0.071,0.066,-2.23,1.90,0.1948,-0.6211,0.7729,0.428,0.039,-1.526,-11.03,-38.57,0.9677,0.0916,0.3135,-3.220,1.132,-0.850,-70.93,11.22,0.04,0.12,0.08
3734,1161.25,1471.50,1419.93,0.0471,0.0452,1.2002,0.016,0.101,0.066,-2.23,1.90,0.1917,-0.6187,0.7761,0.199,0.024,-1.618,-11.02,-38.57,0.9680,0.0906,0.3093,-3.663,0.491,0.631,-70.93,11.25,0.04,0.12,0.08
3754,466.59,631.79,767.99,0.0474,0.0425,1.1992,0.001,0.101,-0.071,-2.23,1.90,0.1912,-0.6233,0.7778,0.428,0.146,-1.557,-11.02,-38.56,0.9646,0.0804,0.3051,-3.862,0.247,1.822,-70.95,11.25,0.04,0.12,0.08
3774,1018.61,920.29,1072.60,0.0449,0.0432,1.1985,0.031,0.025,0.021,-2.22,1.91,0.1931,-0.6199,0.7747,-0.076,0.085,-1.343,-11.01,-38.56,0.9596,0.0693,0.3004,-3.877,0.110,1.455,-70.97,11.21,0.05,0.12,0.08
3794,2349.89,2062.20,2023.52,0.0461,0.0381,1.2029,0.016,0.071,0.036,-2.22,1.91,0.1882,-0.6228,0.7734,0.305,-0.159,-1.724,-11.01,-38.56,0.9615,0.0637,0.2969,-3.449,0.430,-0.087,-70.99,11.16,0.05,0.12,0.07
3815,2424.03,2429.67,2228.21,0.0491,0.0396,1.1921,-0.091,0.010,0.066,-2.23,1.90,0.1948,-0.6257,0.7786,-0.030,0.070,-1.450,-11.01,-38.57,0.9648,0.0699,0.2957,-2.518,1.392,-1.354,-70.99,11.15,0.05,0.11,0.07
3835,1000.07,1316.78,1276.48,0.0488,0.0381,1.1985,0.062,-0.021,0.036,-2.23,1.90,0.1953,-0.6216,0.7708,0.290,-0.083,-1.526,-11.02,-38.57,0.9662,0.0837,0.2985,-2.274,2.247,-1.629,-70.97,11.20,0.05,0.11,0.07
3855,473.04,616.48,755.09,0.0469,0.0374,1.2009,-0.030,0.178,-0.071,-2.22,1.90,0.1882,-0.6250,0.7695,0.397,-0.037,-1.511,-11.01,-38.57,0.9689,0.0887,0.3047,-2.793,2.415,-0.896,-70.94,11.24,0.05,0.11,0.07
3875,1166.08,1055.68,1186.23,0.0481,0.0398,1.1938,-0.091,0.132,0.127,-2.22,1.90,0.1948,-0.6194,0.7808,-0.046,0.070,-1.343,-11.01,-38.57,0.9647,0.0859,0.3174,-3.266,1.209,0.386,-70.92,11.26,0.05,0.11,0.07
3895,2534.43,2262.05,2163.74,0.0493,0.0400,1.2019,-0.030,0.071,-0.056,-2.22,1.90,0.1960,-0.6243,0.7786,0.458,-0.037,-1.618,-11.01,-38.56,0.9669,0.0789,0.3098,-3.831,-0.486,0.890,-70.95,11.24,0.05,0.11,0.07
3915,2256.41,2303.96,2120.22,0.0474,0.0386,1.2021,0.001,-0.051,0.021,-2.23,1.90,0.1914,-0.6213,0.7749,0.061,0.131,-1.312,-11.01,-38.57,0.9636,0.0740,0.2931,-4.167,-0.425,0.814,-70.99,11.22,0.05,0.11,0.06
3935,852.60,1185.42,1173.33,0.0474,0.0359,1.1970,-0.030,-0.005,-0.117,-2.23,1.89,0.1907,-0.6228,0.7749,0.458,-0.083,-1.602,-11.01,-38.56,0.9625,0.0702,0.2886,-3.556,0.522,0.509,-71.02,11.20,0.05,0.11,0.06
3955,488.35,612.45,743.81,0.0417,0.0374,1.2029,-0.030,0.025,0.021,-2.22,1.89,0.1951,-0.6243,0.7766,0.107,-0.067,-1.572,-11.01,-38.56,0.9675,0.0698,0.2911,-2.915,1.942,-0.316,-71.02,11.18,0.05,0.10,0.05
3975,1295.82,1164.47,1294.21,0.0493,0.0369,1.1970,0.031,0.086,0.036,-2.22,1.89,0.1926,-0.6221,0.7729,0.000,0.070,-1.236,-11.01,-38.57,0.9606,0.0724,0.3054,-2.793,2.430,-1.339,-70.99,11.17,0.05,0.10,0.05
3995,2616.63,2345.05,2208.86,0.0466,0.0381,1.1990,0.001,-0.021,0.021,-2.22,1.89,0.1914,-0.6228,0.7732,0.901,0.009,-1.724,-11.01,-38.56,0.9656,0.0796,0.3120,-2.900,1.606,-1.598,-70.96,11.18,0.05,0.10,0.05
4015,2084.76,2207.25,2024.32,0.0457,0.0405,1.2002,-0.030,0.071,0.051,-2.22,1.89,0.1917,-0.6228,0.7710,0.076,-0.067,-1.434,-11.01,-38.56,0.9692,0.0916,0.3114,-3.251,0.995,-0.698,-70.96,11.22,0.05,0.10,0.05
4036,714.80,1029.89,1076.63,0.0454,0.0432,1.1965,-0.014,-0.005,0.127,-2.22,1.89,0.1912,-0.6213,0.7656,0.321,0.055,-1.541,-11.00,-38.57,0.9644,0.0881,0.3073,-3.678,0.751,0.982,-70.96,11.24,0.05,0.10,0.05
4056,518.17,596.34,763.96,0.0464,0.0413,1.1990,-0.030,-0.112,0.127,-2.22,1.89,0.1938,-0.6223,0.7805,0.076,-0.006,-1.480,-11.00,-38.56,0.9640,0.0771,0.3049,-3.938,0.445,1.760,-70.97,11.22,0.05,0.10,0.05
4076,1431.21,1273.26,1378.83,0.0498,0.0391,1.1980,-0.060,-0.005,-0.010,-2.23,1.89,0.1965,-0.6243,0.7715,0.244,0.024,-1.526,-11.01,-38.57,0.9673,0.0669,0.3093,-3.831,0.171,0.753,-70.98,11.17,0.05,0.10,0.05
4096,2681.90,2416.78,2274.95,0.0464,0.0422,1.1953,-0.014,0.071,0.036,-2.22,1.89,0.1951,-0.6201,0.7734,-0.275,0.116,-1.373,-11.01,-38.58,0.9600,0.0660,0.2976,-3.342,0.751,-1.095,-70.99,11.13,0.05,0.10,0.04
4116,1928.42,2062.20,1918.75,0.0483,0.0422,1.2026,-0.030,0.147,-0.102,-2.22,1.89,0.1934,-0.6252,0.7759,0.397,0.131,-1.511,-11.01,-38.57,0.9680,0.0790,0.2937,-2.854,1.820,-1.873,-70.99,11.15,0.05,0.10,0.04
4136,655.97,942.05,992.01,0.0461,0.0422,1.1980,0.001,0.025,0.021,-2.22,1.90,0.1909,-0.6184,0.7698,0.321,0.131,-1.557,-11.00,-38.57,0.9648,0.0903,0.3032,-2.762,2.613,-1.217,-70.96,11.21,0.05,0.10,0.04
4156,591.50,631.79,791.36,0.0469,0.0432,1.2000,0.001,-0.051,0.051,-2.22,1.90,0.1924,-0.6199,0.7664,-0.198,0.100,-1.358,-11.00,-38.58,0.9659,0.0890,0.3169,-3.312,1.835,0.310,-70.92,11.23,0.06,0.10,0.04
4176,1584.32,1393.33,1477.95,0.0447,0.0388,1.2004,0.001,-0.051,0.005,-2.22,1.90,0.1917,-0.6216,0.7673,0.473,-0.006,-1.648,-11.00,-38.58,0.9673,0.0802,0.3187,-3.892,-0.165,1.165,-70.93,11.21,0.06,0.10,0.05
4196,2716.56,2471.58,2302.34,0.0500,0.0376,1.1943,0.092,-0.082,-0.056,-2.23,1.90,0.1924,-0.6240,0.7720,0.076,0.116,-1.358,-11.00,-38.59,0.9642,0.0699,0.3003,-4.136,-0.898,0.982,-70.98,11.17,0.06,0.10,0.04
4216,1805.13,1975.97,1844.62,0.0452,0.0430,1.1958,0.016,-0.051,0.066,-2.23,1.90,0.1936,-0.6206,0.7688,0.351,-0.067,-1.541,-11.00,-38.59,0.9626,0.0703,0.2875,-3.709,0.171,0.203,-71.01,11.15,0.06,0.10,0.04
4236,578.61,864.69,926.74,0.0469,0.0393,1.1956,0.001,-0.067,-0.040,-2.23,1.90,0.1934,-0.6211,0.7705,0.260,-0.083,-1.495,-11.00,-38.59,0.9633,0.0709,0.2845,-2.930,2.140,-0.484,-71.01,11.15,0.06,0.09,0.04
4256,633.41,648.72,800.22,0.0461,0.0408,1.1943,-0.030,-0.051,-0.224,-2.23,1.90,0.1929,-0.6257,0.7751,0.428,-0.067,-1.602,-11.00,-38.59,0.9667,0.0721,0.3064,-2.411,3.239,-1.324,-70.97,11.14,0.06,0.09,0.04
4276,1722.93,1517.44,1577.07,0.0457,0.0430,1.2000,-0.030,0.040,0.112,-2.23,1.91,0.1941,-0.6211,0.7742,0.122,0.009,-1.312,-11.00,-38.59,0.9641,0.0767,0.3237,-2.808,2.186,-1.522,-70.92,11.13,0.06,0.10,0.04
4296,2748.79,2513.48,2326.52,0.0437,0.0398,1.1956,-0.106,0.071,0.005,-2.22,1.90,0.1956,-0.6223,0.7708,-0.198,0.085,-1.343,-11.01,-38.60,0.9664,0.0917,0.3198,-3.465,0.369,-0.804,-70.92,11.16,0.06,0.10,0.04
4316,1686.67,1873.63,1755.97,0.0457,0.0415,1.2009,-0.014,-0.219,-0.025,-2.23,1.90,0.1914,-0.6216,0.7720,0.366,0.009,-1.572,-11.00,-38.60,0.9669,0.0916,0.3058,-4.014,-0.577,0.799,-70.95,11.19,0.06,0.10,0.04
4336,533.48,779.27,864.69,0.0469,0.0364,1.2014,0.001,-0.051,0.112,-2.23,1.90,0.1912,-0.6243,0.7756,0.122,-0.067,-1.328,-11.00,-38.60,0.9683,0.0803,0.2960,-4.014,0.064,1.867,-70.97,11.19,0.06,0.10,0.04
4357,705.93,683.37,859.05,0.0466,0.0388,1.1973,0.001,-0.036,-0.040,-2.23,1.90,0.1902,-0.6223,0.7759,0.107,-0.037,-1.419,-11.00,-38.60,0.9661,0.0640,0.2922,-3.678,0.736,1.302,-71.00,11.14,0.06,0.10,0.04
4377,1869.60,1648.79,1683.44,0.0474,0.0359,1.2031,0.047,-0.021,0.158,-2.23,1.90,0.1934,-0.6230,0.7712,0.183,0.100,-1.465,-11.00,-38.60,0.9620,0.0613,0.2976,-3.327,1.438,-0.636,-71.00,11.09,0.06,0.10,0.04
4397,2715.75,2534.43,2329.74,0.0493,0.0361,1.1985,0.062,0.040,0.082,-2.23,1.90,0.1914,-0.6243,0.7727,0.321,0.009,-1.557,-11.00,-38.60,0.9678,0.0710,0.3030,-2.808,1.743,-2.331,-70.99,11.07,0.06,0.10,0.03
4417,1492.45,1720.51,1632.67,0.0469,0.0396,1.1963,-0.106,0.010,0.051,-2.23,1.89,0.1948,-0.6274,0.7854,0.428,0.024,-1.526,-11.00,-38.59,0.9685,0.0886,0.3010,-2.625,2.201,-2.148,-70.96,11.13,0.06,0.10,0.03
4437,499.63,726.89,821.17,0.0417,0.0405,1.2021,0.031,0.086,-0.056,-2.22,1.89,0.1943,-0.6252,0.7739,0.168,0.070,-1.450,-11.00,-38.60,0.9716,0.0986,0.3121,-3.083,2.232,-0.377,-70.93,11.19,0.07,0.10,0.04
4457,813.11,776.04,948.50,0.0454,0.0413,1.2002,0.031,0.056,0.066,-2.22,1.90,0.1929,-0.6216,0.7749,0.550,0.085,-1.557,-10.99,-38.59,0.9633,0.0879,0.3196,-3.556,0.995,1.226,-70.91,11.21,0.07,0.10,0.04
4477,2062.20,1835.75,1829.30,0.0469,0.0403,1.1934,0.031,0.025,0.005,-2.22,1.90,0.1931,-0.6260,0.7739,0.076,-0.037,-1.419,-10.99,-38.60,0.9645,0.0769,0.3168,-4.121,-0.577,1.669,-70.93,11.18,0.07,0.11,0.04
4497,2652.89,2531.21,2307.99,0.0444,0.0369,1.1941,-0.060,0.056,0.097,-2.22,1.89,0.1943,-0.6206,0.7759,0.351,0.100,-1.557,-10.99,-38.59,0.9655,0.0704,0.2966,-4.060,-0.791,0.982,-70.98,11.14,0.07,0.10,0.04
4517,1276.48,1548.06,1485.20,0.0461,0.0388,1.1970,-0.091,0.086,0.005,-2.22,1.89,0.1946,-0.6211,0.7703,0.000,0.131,-1.343,-10.99,-38.60,0.9637,0.0687,0.2854,-3.388,0.507,-0.163,-71.01,11.12,0.07,0.10,0.03
4537,473.85,656.78,777.66,0.0452,0.0403,1.2014,0.016,0.071,-0.071,-2.21,1.89,0.1926,-0.6243,0.7690,-0.076,0.055,-1.373,-10.99,-38.61,0.9647,0.0696,0.2900,-2.854,2.369,-1.049,-71.00,11.11,0.07,0.10,0.03
4557,961.39,877.58,1021.03,0.0432,0.0391,1.1997,0.031,0.117,-0.102,-2.21,1.89,0.1909,-0.6260,0.7710,0.199,-0.006,-1.557,-10.99,-38.61,0.9664,0.0802,0.3062,-2.594,2.674,-1.537,-70.96,11.13,0.07,0.10,0.03
4577,2248.35,1976.78,1955.02,0.0459,0.0364,1.2017,-0.030,0.086,-0.086,-2.21,1.89,0.1965,-0.6218,0.7666,0.168,0.207,-1.480,-10.99,-38.62,0.9663,0.0868,0.3137,-2.961,1.743,-1.217,-70.94,11.16,0.07,0.10,0.03
4597,2582.78,2491.72,2273.33,0.0481,0.0408,1.1982,0.077,-0.051,0.005,-2.21,1.89,0.1921,-0.6250,0.7729,0.321,-0.067,-1.633,-10.99,-38.62,0.9686,0.0933,0.3071,-3.678,0.293,-0.056,-70.95,11.20,0.06,0.10,0.03
4618,1145.13,1413.48,1378.83,0.0452,0.0400,1.1978,0.077,0.025,0.112,-2.21,1.89,0.1863,-0.6265,0.7678,0.046,-0.006,-1.450,-10.99,-38.63,0.9642,0.0874,0.3010,-3.953,-0.119,1.119,-70.97,11.23,0.06,0.10,0.03
4638,477.07,643.08,772.82,0.0444,0.0391,1.1980,0.016,-0.051,0.158,-2.21,1.89,0.1919,-0.6228,0.7705,0.534,-0.129,-1.495,-10.99,-38.63,0.9629,0.0757,0.2928,-3.846,0.339,1.593,-70.99,11.22,0.06,0.09,0.03
4658,1033.92,925.13,1077.44,0.0486,0.0442,1.2009,0.016,-0.005,0.112,-2.21,1.90,0.1926,-0.6230,0.7742,0.565,0.162,-1.587,-10.98,-38.62,0.9686,0.0649,0.2935,-3.388,1.194,0.661,-71.01,11.17,0.07,0.09,0.02
4678,2350.70,2062.20,2019.49,0.0486,0.0435,1.1960,0.031,0.056,0.066,-2.21,1.90,0.1929,-0.6206,0.7729,-0.061,0.162,-1.282,-10.98,-38.62,0.9596,0.0652,0.3047,-2.991,1.835,-0.972,-70.99,11.13,0.07,0.09,0.02
4698,2433.70,2429.67,2231.43,0.0493,0.0437,1.1963,0.077,0.071,0.158,-2.21,1.91,0.1934,-0.6230,0.7771,0.473,-0.052,-1.557,-10.98,-38.61,0.9635,0.0750,0.3071,-2.732,1.835,-1.904,-70.97,11.13,0.07,0.09,0.02
4718,1007.33,1308.72,1299.85,0.0488,0.0413,1.2046,0.123,0.086,-0.071,-2.21,1.91,0.1938,-0.6194,0.7773,0.244,-0.022,-1.312,-10.98,-38.61,0.9641,0.0873,0.3101,-3.007,1.728,-1.339,-70.95,11.16,0.07,0.09,0.02
4738,477.07,618.10,760.73,0.0469,0.0422,1.1956,-0.014,-0.097,-0.056,-2.22,1.91,0.1975,-0.6179,0.7717,-0.076,-0.052,-1.495,-10.99,-38.61,0.9659,0.0914,0.3092,-3.388,1.239,0.173,-70.94,11.20,0.07,0.09,0.02
4758,1172.53,1033.92,1159.63,0.0469,0.0410,1.1968,0.016,-0.128,-0.163,-2.22,1.91,0.1909,-0.6226,0.7744,0.290,-0.006,-1.495,-10.99,-38.61,0.9675,0.0839,0.3098,-3.694,0.216,1.058,-70.95,11.21,0.07,0.09,0.03
4778,2512.67,2230.62,2125.86,0.0481,0.0342,1.1987,0.016,0.071,-0.010,-2.22,1.91,0.1936,-0.6274,0.7756,-0.275,0.131,-1.236,-10.99,-38.62,0.9644,0.0743,0.3062,-3.877,-0.165,0.997,-70.97,11.18,0.07,0.09,0.02
4798,2291.06,2333.77,2147.62,0.0498,0.0371,1.2009,0.047,0.086,0.005,-2.22,1.91,0.1956,-0.6230,0.7788,0.595,-0.190,-1.526,-10.99,-38.61,0.9625,0.0710,0.2946,-3.571,0.339,0.127,-70.99,11.16,0.07,0.09,0.02
4818,860.66,1165.27,1173.33,0.0479,0.0347,1.1992,-0.014,-0.005,-0.102,-2.22,1.90,0.1953,-0.6240,0.7725,0.107,0.039,-1.450,-10.99,-38.62,0.9679,0.0750,0.2928,-3.052,1.591,-0.484,-70.99,11.16,0.07,0.09,0.02
4838,492.38,618.10,739.78,0.0486,0.0442,1.1965,0.062,0.086,-0.102,-2.22,1.91,0.1931,-0.6221,0.7698,0.611,0.009,-1.450,-11.00,-38.61,0.9636,0.0740,0.3027,-2.915,2.491,-0.728,-70.97,11.16,0.07,0.09,0.02
4858,1298.24,1139.49,1266.01,0.0439,0.0444,1.1987,-0.030,0.040,0.082,-2.22,1.91,0.1953,-0.6230,0.7742,0.015,0.055,-1.495,-11.00,-38.61,0.9645,0.0807,0.3101,-3.236,1.713,-0.865,-70.95,11.16,0.07,0.09,0.02
4878,2610.18,2333.77,2217.73,0.0474,0.0422,1.2019,-0.045,-0.021,0.036,-2.22,1.91,0.1902,-0.6196,0.7739,0.092,0.116,-1.434,-10.99,-38.61,0.9656,0.0834,0.3135,-3.419,0.949,-0.194,-70.94,11.17,0.07,0.09,0.02
4899,2090.40,2191.94,2036.41,0.0464,0.0359,1.1953,-0.045,-0.067,0.051,-2.22,1.91,0.1912,-0.6204,0.7778,0.244,-0.083,-1.694,-10.99,-38.61,0.9650,0.0809,0.3057,-3.602,0.018,0.249,-70.96,11.17,0.07,0.09,0.02
4919,727.69,1032.31,1047.62,0.0452,0.0396,1.2012,0.016,-0.005,0.051,-2.22,1.91,0.1963,-0.6228,0.7722,0.153,-0.052,-1.465,-11.00,-38.61,0.9677,0.0789,0.2983,-3.678,0.369,0.738,-70.98,11.17,0.07,0.09,0.02
4939,534.29,605.20,760.73,0.0449,0.0420,1.1953,0.047,-0.036,0.051,-2.22,1.91,0.1995,-0.6226,0.7698,-0.015,0.039,-1.541,-11.00,-38.62,0.9653,0.0712,0.2952,-3.434,1.194,0.325,-70.98,11.15,0.07,0.09,0.02
4959,1421.54,1262.78,1353.85,0.0452,0.0386,1.1960,0.016,-0.021,-0.071,-2.22,1.91,0.1951,-0.6233,0.7703,0.305,-0.006,-1.495,-11.01,-38.62,0.9631,0.0695,0.2980,-2.961,1.499,-0.682,-70.98,11.13,0.07,0.09,0.02
4979,2667.40,2411.14,2256.41,0.0496,0.0383,1.2073,0.031,-0.036,0.082,-2.22,1.91,0.1936,-0.6213,0.7688,0.550,0.131,-1.526,-11.00,-38.61,0.9694,0.0781,0.2988,-3.037,1.484,-0.835,-70.98,11.14,0.07,0.09,0.02
4999,2002.56,2143.59,1967.91,0.0437,0.0417,1.1963,0.001,-0.005,0.021,-2.22,1.91,0.1924,-0.6218,0.7695,0.031,-0.022,-1.419,-11.01,-38.62,0.9666,0.0803,0.3059,-3.190,1.224,-0.453,-70.97,11.15,0.07,0.09,0.02
5019,667.25,967.03,1016.19,0.0449,0.0393,1.2014,0.001,0.040,0.066,-2.22,1.91,0.1926,-0.6226,0.7678,0.290,-0.067,-1.587,-11.01,-38.62,0.9692,0.0835,0.3069,-3.587,0.903,0.295,-70.97,11.16,0.06,0.09,0.02
5039,563.30,613.26,779.27,0.0466,0.0403,1.1924,0.016,-0.082,0.082,-2.22,1.91,0.1963,-0.6260,0.7778,0.366,0.039,-1.557,-11.01,-38.62,0.9636,0.0776,0.3004,-3.617,0.690,0.402,-70.98,11.16,0.06,0.09,0.02
5059,1546.45,1378.83,1449.74,0.0500,0.0410,1.2007,0.077,-0.051,0.097,-2.22,1.91,0.1921,-0.6255,0.7756,0.397,0.009,-1.419,-11.01,-38.62,0.9636,0.0739,0.2971,-3.404,0.766,0.020,-71.00,11.15,0.06,0.09,0.02
5079,2725.42,2452.23,2312.01,0.0525,0.0383,1.1958,-0.091,0.071,0.005,-2.23,1.91,0.1907,-0.6235,0.7766,0.275,0.024,-1.526,-11.00,-38.62,0.9662,0.0742,0.3003,-3.220,1.148,-0.377,-71.00,11.14,0.06,0.09,0.02
5099,1873.63,2040.44,1891.36,0.0449,0.0400,1.2000,0.077,0.010,0.097,-2.23,1.91,0.1941,-0.6208,0.7686,0.153,-0.006,-1.450,-11.00,-38.62,0.9640,0.0780,0.3053,-3.068,1.514,-0.621,-70.99,11.14,0.06,0.08,0.02
5119,601.98,884.84,963.00,0.0457,0.0388,1.1921,-0.030,0.025,-0.086,-2.22,1.91,0.1956,-0.6221,0.7729,0.534,0.085,-1.618,-11.01,-38.61,0.9655,0.0811,0.3046,-3.205,1.514,-0.530,-70.98,11.16,0.06,0.09,0.02
5139,601.17,656.78,792.97,0.0464,0.0408,1.1973,0.062,0.101,0.097,-2.22,1.91,0.1919,-0.6235,0.7761,0.122,0.024,-1.373,-11.00,-38.61,0.9691,0.0808,0.3022,-3.358,1.071,-0.041,-70.98,11.17,0.06,0.09,0.02
5159,1689.08,1477.95,1541.61,0.0474,0.0410,1.1909,0.047,0.056,0.036,-2.22,1.91,0.1909,-0.6235,0.7751,0.336,-0.006,-1.465,-11.00,-38.61,0.9628,0.0807,0.3066,-3.648,0.461,0.341,-70.98,11.17,0.06,0.08,0.02
5179,2732.67,2525.57,2338.61,0.0442,0.0374,1.2017,0.016,0.010,0.005,-2.22,1.91,0.1943,-0.6211,0.7822,0.260,-0.006,-1.557,-11.00,-38.60,0.9685,0.0741,0.3048,-3.617,0.476,0.509,-71.00,11.14,0.06,0.08,0.02
5199,1714.87,1932.45,1764.03,0.0471,0.0347,1.2004,0.092,0.040,-0.071,-2.22,1.91,0.1929,-0.6248,0.7703,0.076,-0.052,-1.404,-11.00,-38.61,0.9663,0.0757,0.2974,-3.404,0.842,-0.011,-71.01,11.14,0.06,0.08,0.02
5220,539.12,802.64,877.58,0.0442,0.0359,1.1968,0.001,-0.005,0.051,-2.22,1.90,0.1912,-0.6230,0.7705,0.168,0.100,-1.404,-11.00,-38.61,0.9626,0.0746,0.2990,-3.068,1.407,-0.652,-71.00,11.14,0.06,0.08,0.02
5240,696.26,683.37,838.90,0.0466,0.0396,1.2034,0.016,0.040,0.082,-2.22,1.90,0.1960,-0.6223,0.7749,0.611,0.009,-1.602,-11.00,-38.60,0.9683,0.0796,0.3015,-2.961,1.667,-0.850,-70.99,11.15,0.06,0.08,0.01
5260,1867.99,1625.42,1681.83,0.0454,0.0391,1.1960,0.062,0.010,-0.040,-2.22,1.90,0.1941,-0.6257,0.7744,0.382,0.009,-1.450,-11.00,-38.60,0.9707,0.0812,0.3074,-3.113,1.514,-0.255,-70.98,11.16,0.06,0.08,0.01
5280,2737.51,2552.16,2349.08,0.0457,0.0383,1.1990,-0.060,0.086,-0.010,-2.21,1.90,0.1941,-0.6233,0.7769,0.015,0.162,-1.450,-11.00,-38.61,0.9658,0.0802,0.3088,-3.480,1.056,0.280,-70.98,11.16,0.06,0.08,0.02
5300,1541.61,1767.25,1672.16,0.0476,0.0403,1.2009,-0.014,0.117,0.051,-2.21,1.90,0.1921,-0.6243,0.7734,0.351,0.039,-1.450,-11.00,-38.61,0.9674,0.0773,0.3053,-3.587,0.507,0.417,-70.99,11.15,0.06,0.08,0.01
5320,517.36,736.56,845.35,0.0461,0.0459,1.1958,-0.014,0.071,-0.025,-2.21,1.91,0.1953,-0.6194,0.7793,0.229,0.162,-1.343,-11.00,-38.60,0.9646,0.0779,0.3020,-3.648,0.415,0.386,-71.00,11.15,0.06,0.07,0.01
5340,764.76,760.73,928.35,0.0449,0.0405,1.1965,-0.045,-0.036,0.051,-2.21,1.91,0.1895,-0.6248,0.7700,0.137,-0.006,-1.465,-10.99,-38.60,0.9625,0.0750,0.2959,-3.495,0.965,0.127,-71.01,11.14,0.06,0.07,0.01
5360,2001.76,1781.76,1796.26,0.0474,0.0417,1.2012,-0.091,-0.067,0.005,-2.21,1.91,0.1929,-0.6248,0.7690,0.046,-0.022,-1.557,-10.99,-38.61,0.9626,0.0742,0.2999,-3.098,1.224,-0.224,-71.01,11.13,0.06,0.07,0.01
5380,2671.43,2540.07,2338.61,0.0474,0.0427,1.2024,-0.091,0.025,-0.010,-2.21,1.91,0.1924,-0.6262,0.7754,0.321,-0.037,-1.450,-10.99,-38.61,0.9667,0.0732,0.3029,-3.083,1.560,-0.591,-71.00,11.12,0.06,0.07,0.01
5400,1366.74,1632.67,1547.25,0.0457,0.0369,1.1997,-0.121,0.101,0.021,-2.21,1.90,0.1909,-0.6228,0.7710,-0.046,0.024,-1.404,-10.99,-38.62,0.9662,0.0770,0.3011,-3.388,1.300,-0.728,-71.00,11.12,0.06,0.07,0.01
5420,475.46,677.73,772.82,0.0447,0.0388,1.2002,-0.014,0.071,-0.056,-2.21,1.90,0.1936,-0.6223,0.7725,0.137,0.192,-1.373,-10.99,-38.62,0.9689,0.0815,0.3070,-3.297,0.842,-0.530,-71.00,11.13,0.06,0.07,0.00
5440,880.81,830.84,962.20,0.0459,0.0374,1.2019,0.016,0.208,0.051,-2.20,1.90,0.1941,-0.6255,0.7722,0.626,-0.006,-1.526,-10.99,-38.62,0.9662,0.0847,0.3027,-3.449,1.041,0.173,-71.00,11.15,0.06,0.06,0.00
5460,2162.93,1906.67,1888.13,0.0452,0.0417,1.2012,0.001,0.117,0.051,-2.20,1.90,0.1914,-0.6257,0.7671,0.305,0.253,-1.404,-10.98,-38.62,0.9670,0.0795,0.2982,-3.587,1.117,0.844,-71.00,11.16,0.06,0.06,0.00
5480,2631.14,2536.04,2307.99,0.0488,0.0396,1.1990,-0.030,-0.021,0.036,-2.20,1.90,0.1970,-0.6228,0.7751,0.214,-0.006,-1.434,-10.99,-38.62,0.9613,0.0724,0.3073,-3.541,0.797,0.661,-71.00,11.13,0.06,0.06,0.00
5500,1215.24,1519.85,1453.77,0.0435,0.0408,1.1992,-0.030,-0.128,0.005,-2.20,1.90,0.1929,-0.6182,0.7710,0.244,0.039,-1.526,-10.99,-38.62,0.9600,0.0697,0.2994,-3.541,0.705,-0.117,-71.01,11.10,0.06,0.06,-0.00
5521,464.18,651.94,780.07,0.0508,0.0422,1.1941,0.062,-0.143,0.005,-2.21,1.90,0.1904,-0.6218,0.7734,0.321,-0.006,-1.541,-10.99,-38.62,0.9623,0.0720,0.2964,-3.220,0.919,-0.835,-71.02,11.09,0.06,0.06,-0.00
5541,990.40,913.04,1065.35,0.0439,0.0403,1.1941,-0.030,-0.158,0.143,-2.21,1.90,0.1941,-0.6218,0.7722,0.015,-0.251,-1.572,-10.99,-38.62,0.9611,0.0802,0.2980,-3.007,1.377,-0.957,-71.02,11.11,0.06,0.05,-0.01
5561,2320.07,2050.11,1999.34,0.0452,0.0398,1.1995,-0.030,0.040,0.097,-2.21,1.90,0.1948,-0.6265,0.7737,0.168,-0.281,-1.618,-11.00,-38.63,0.9678,0.0797,0.3022,-2.961,1.728,-0.591,-71.01,11.12,0.06,0.05,-0.01
5581,2515.09,2474.80,2266.89,0.0425,0.0408,1.2043,-0.014,0.040,0.021,-2.20,1.90,0.1924,-0.6265,0.7761,0.534,0.055,-1.557,-11.00,-38.62,0.9688,0.0813,0.3066,-3.205,1.407,-0.255,-71.00,11.14,0.06,0.05,-0.01
5601,1035.53,1351.43,1307.11,0.0488,0.0366,1.1997,-0.014,0.132,0.051,-2.20,1.90,0.1951,-0.6211,0.7734,0.015,-0.006,-1.450,-11.00,-38.62,0.9644,0.0791,0.3103,-3.419,0.812,0.066,-70.99,11.13,0.06,0.05,-0.01
5621,448.86,605.20,739.78,0.0422,0.0417,1.1951,-0.030,-0.036,-0.056,-2.20,1.90,0.1921,-0.6208,0.7693,0.290,-0.037,-1.648,-11.00,-38.62,0.9666,0.0807,0.3008,-3.571,0.262,0.249,-71.01,11.14,0.06,0.05,-0.01
5641,1119.34,1006.52,1133.85,0.0469,0.0430,1.1926,0.001,0.010,0.005,-2.20,1.91,0.1931,-0.6228,0.7686,0.153,-0.052,-1.236,-11.00,-38.63,0.9623,0.0787,0.3018,-3.373,0.568,0.463,-71.02,11.14,0.06,0.05,-0.01
5661,2467.55,2201.61,2114.58,0.0449,0.0386,1.2026,0.077,-0.097,0.036,-2.20,1.91,0.1909,-0.6245,0.7778,0.550,-0.098,-1.694,-11.00,-38.62,0.9647,0.0719,0.3009,-3.312,1.071,0.218,-71.02,11.12,0.06,0.05,-0.01
5681,2359.56,2371.65,2161.32,0.0496,0.0400,1.2053,0.016,-0.082,0.036,-2.21,1.91,0.1921,-0.6230,0.7793,0.031,0.039,-1.404,-11.00,-38.62,0.9640,0.0686,0.3004,-3.098,1.758,-0.377,-71.01,11.10,0.06,0.05,-0.01
5701,928.35,1237.00,1217.66,0.0493,0.0381,1.2017,-0.045,0.040,0.005,-2.21,1.90,0.1948,-0.6228,0.7676,-0.153,-0.037,-1.526,-11.00,-38.63,0.9637,0.0730,0.3029,-2.808,1.560,-1.125,-71.01,11.09,0.05,0.05,-0.01
5721,472.23,603.59,753.48,0.0476,0.0410,1.1948,-0.045,-0.097,0.051,-2.21,1.90,0.1963,-0.6208,0.7720,0.595,-0.235,-1.602,-11.01,-38.62,0.9656,0.0819,0.3062,-2.915,1.239,-1.430,-71.00,11.11,0.05,0.05,-0.01
5741,1216.85,1083.88,1203.15,0.0444,0.0417,1.2002,-0.076,-0.128,0.066,-2.21,1.90,0.1968,-0.6189,0.7739,-0.412,0.070,-1.160,-11.01,-38.63,0.9664,0.0892,0.3033,-3.281,1.178,-0.636,-70.99,11.15,0.05,0.05,-0.01
5761,2537.66,2265.27,2157.29,0.0400,0.0378,1.1902,-0.060,-0.143,0.097,-2.21,1.90,0.1885,-0.6206,0.7742,0.702,-0.220,-1.877,-11.01,-38.62,0.9620,0.0859,0.3062,-3.556,0.873,0.707,-70.99,11.17,0.05,0.05,-0.00
5781,2268.50,2312.82,2131.50,0.0449,0.0415,1.2017,-0.030,-0.128,0.112,-2.21,1.90,0.1885,-0.6235,0.7729,0.000,-0.144,-1.495,-11.01,-38.63,0.9669,0.0728,0.3052,-3.571,0.369,1.348,-71.00,11.15,0.05,0.05,-0.00
5801,861.47,1178.97,1174.95,0.0476,0.0388,1.2004,0.016,-0.051,-0.010,-2.21,1.90,0.1941,-0.6213,0.7786,0.366,-0.174,-1.648,-11.01,-38.62,0.9679,0.0630,0.3038,-3.541,0.491,0.646,-71.02,11.09,0.05,0.05,-0.00
5821,488.35,596.34,755.90,0.0476,0.0432,1.2041,0.031,-0.067,0.112,-2.22,1.90,0.1978,-0.6243,0.7776,-0.183,-0.052,-1.541,-11.02,-38.62,0.9694,0.0641,0.2966,-3.388,0.781,-1.018,-71.03,11.04,0.05,0.05,-0.00
5841,1266.01,1139.49,1254.73,0.0505,0.0430,1.1951,0.016,0.056,0.005,-2.22,1.91,0.1929,-0.6240,0.7725,0.031,-0.037,-1.465,-11.02,-38.63,0.9651,0.0763,0.2946,-2.869,1.820,-2.011,-71.03,11.06,0.05,0.04,-0.01
5862,2598.90,2324.10,2213.70,0.0493,0.0383,1.2019,0.031,0.010,-0.102,-2.22,1.91,0.1956,-0.6240,0.7764,0.794,-0.144,-1.724,-11.02,-38.62,0.9681,0.0890,0.2990,-2.564,2.644,-1.614,-71.00,11.12,0.05,0.05,-0.00
5882,2155.68,2249.16,2052.53,0.0483,0.0388,1.2009,0.016,0.010,0.005,-2.22,1.91,0.1914,-0.6230,0.7751,0.061,0.192,-1.282,-11.02,-38.62,0.9679,0.0906,0.3163,-3.419,2.186,-0.026,-70.96,11.15,0.05,0.05,0.00
5902,738.97,1050.04,1073.41,0.0447,0.0420,1.1992,0.047,0.071,0.051,-2.22,1.91,0.1997,-0.6245,0.7742,0.428,-0.052,-1.541,-11.03,-38.62,0.9651,0.0804,0.3191,-3.816,0.537,1.196,-70.95,11.13,0.05,0.05,0.01
5922,528.64,600.37,765.57,0.0457,0.0400,1.2004,-0.060,0.010,-0.040,-2.22,1.91,0.1965,-0.6233,0.7717,-0.183,0.055,-1.572,-11.03,-38.63,0.9663,0.0710,0.3108,-3.938,-1.158,1.165,-70.99,11.09,0.05,0.05,0.01
5942,1413.48,1253.11,1353.85,0.0459,0.0381,1.1948,0.031,-0.143,0.021,-2.22,1.91,0.1956,-0.6223,0.7627,0.061,-0.037,-1.389,-11.03,-38.64,0.9615,0.0698,0.2921,-4.014,-0.684,0.524,-71.04,11.06,0.05,0.05,0.01
5962,2664.98,2410.33,2260.44,0.0488,0.0420,1.1992,-0.045,-0.235,0.005,-2.23,1.91,0.1948,-0.6216,0.7688,-0.015,-0.220,-1.724,-11.04,-38.64,0.9611,0.0703,0.2833,-3.434,1.285,-0.499,-71.05,11.05,0.04,0.05,0.00
5982,1972.75,2120.22,1944.54,0.0464,0.0417,1.1938,-0.014,-0.143,0.021,-2.23,1.91,0.1899,-0.6262,0.7727,0.076,-0.083,-1.480,-11.04,-38.65,0.9615,0.0737,0.2896,-2.564,2.949,-1.400,-71.03,11.06,0.04,0.05,0.00
6002,659.19,941.25,1006.52,0.0449,0.0366,1.2046,-0.076,-0.173,-0.102,-2.23,1.90,0.1948,-0.6270,0.7747,0.733,-0.083,-1.816,-11.04,-38.64,0.9674,0.0778,0.3088,-2.320,3.056,-1.720,-70.98,11.08,0.04,0.05,0.01
6022,567.33,631.79,779.27,0.0471,0.0420,1.2026,0.047,-0.021,-0.025,-2.23,1.91,0.1909,-0.6252,0.7795,-0.122,-0.037,-1.389,-11.04,-38.65,0.9674,0.0865,0.3232,-2.976,1.667,-1.293,-70.95,11.10,0.04,0.06,0.01
6042,1599.63,1407.03,1470.70,0.0479,0.0422,1.1973,0.062,0.040,0.021,-2.23,1.91,0.1943,-0.6218,0.7705,0.275,-0.006,-1.495,-11.04,-38.65,0.9701,0.0925,0.3126,-3.831,0.049,-0.194,-70.96,11.13,0.04,0.06,0.02
6062,2723.81,2493.33,2319.27,0.0493,0.0396,1.1982,0.001,0.025,0.097,-2.23,1.91,0.1921,-0.6218,0.7712,0.229,-0.006,-1.526,-11.04,-38.65,0.9708,0.0870,0.3069,-4.029,-0.242,1.211,-70.98,11.15,0.04,0.06,0.02
6082,1815.60,1995.31,1848.64,0.0447,0.0417,1.1990,-0.030,0.071,0.066,-2.23,1.91,0.1968,-0.6226,0.7830,0.305,-0.022,-1.419,-11.04,-38.64,0.9640,0.0776,0.2938,-3.739,0.308,1.867,-71.01,11.14,0.04,0.06,0.02
6102,587.47,863.88,927.55,0.0459,0.0430,1.1936,0.047,-0.036,-0.071,-2.23,1.92,0.1941,-0.6213,0.7822,0.183,-0.159,-1.495,-11.04,-38.63,0.9592,0.0638,0.2954,-3.312,0.903,0.936,-71.02,11.10,0.04,0.06,0.02
6123,640.66,666.45,824.40,0.0454,0.0381,1.2004,-0.060,-0.036,0.021,-2.23,1.91,0.1907,-0.6274,0.7734,0.351,0.039,-1.709,-11.04,-38.63,0.9647,0.0609,0.3002,-3.068,1.423,-0.881,-71.02,11.05,0.04,0.06,0.02
6143,1743.08,1534.36,1578.68,0.0483,0.0374,1.2051,-0.060,-0.143,0.051,-2.24,1.91,0.1934,-0.6216,0.7798,0.214,-0.083,-1.495,-11.04,-38.63,0.9612,0.0702,0.3003,-2.854,1.774,-2.178,-71.01,11.03,0.04,0.06,0.02
6163,2723.81,2534.43,2320.88,0.0498,0.0454,1.1970,0.001,-0.189,0.127,-2.24,1.91,0.1926,-0.6213,0.7747,-0.183,-0.159,-1.526,-11.04,-38.63,0.9648,0.0863,0.2994,-2.625,1.804,-2.148,-70.99,11.08,0.04,0.06,0.02
6183,1649.60,1839.78,1740.66,0.0476,0.0398,1.1990,-0.014,-0.112,-0.102,-2.24,1.91,0.1931,-0.6226,0.7810,0.397,-0.144,-1.679,-11.04,-38.62,0.9694,0.0925,0.3070,-2.915,1.926,-0.682,-70.97,11.14,0.04,0.07,0.02
6203,522.20,773.63,874.36,0.0498,0.0378,1.2012,-0.091,-0.128,0.112,-2.25,1.91,0.1951,-0.6265,0.7727,-0.412,-0.113,-1.511,-11.04,-38.64,0.9696,0.0856,0.3170,-3.495,0.812,0.799,-70.96,11.15,0.04,0.07,0.03
6223,691.43,705.13,864.69,0.0476,0.0344,1.1970,-0.091,0.025,0.127,-2.25,1.90,0.1943,-0.6316,0.7795,0.321,-0.037,-1.633,-11.04,-38.64,0.9680,0.0779,0.3097,-3.938,-0.425,1.073,-70.98,11.13,0.04,0.07,0.03
6243,1901.03,1685.86,1720.51,0.0459,0.0356,1.2065,0.016,0.147,0.005,-2.25,1.90,0.1909,-0.6255,0.7744,0.000,0.100,-1.251,-11.04,-38.65,0.9712,0.0754,0.2952,-3.984,-0.623,0.738,-71.03,11.12,0.04,0.07,0.03
6263,2717.36,2548.94,2326.52,0.0427,0.0388,1.1968,0.108,0.132,-0.071,-2.24,1.90,0.1936,-0.6270,0.7725,0.489,0.177,-1.465,-11.03,-38.64,0.9633,0.0767,0.2833,-3.526,0.705,0.325,-71.05,11.13,0.04,0.07,0.02
6283,1508.57,1735.82,1637.51,0.0452,0.0393,1.2021,-0.045,0.056,0.051,-2.24,1.90,0.1951,-0.6252,0.7788,0.748,-0.113,-1.633,-11.03,-38.63,0.9647,0.0731,0.2910,-3.037,2.110,-0.163,-71.05,11.13,0.04,0.07,0.02
6303,502.05,713.99,824.40,0.0479,0.0422,1.2017,-0.091,-0.082,0.127,-2.24,1.90,0.1973,-0.6204,0.7766,0.168,-0.098,-1.557,-11.04,-38.63,0.9636,0.0697,0.3060,-2.671,2.965,-1.033,-71.01,11.11,0.04,0.07,0.02
6323,786.52,742.20,917.07,0.0476,0.0469,1.1953,0.001,-0.097,-0.117,-2.24,1.91,0.1921,-0.6182,0.7778,0.763,-0.083,-1.572,-11.04,-38.61,0.9664,0.0778,0.3165,-2.762,2.216,-1.858,-70.97,11.11,0.04,0.07,0.03
6343,2062.20,1807.55,1826.08,0.0503,0.0420,1.1990,0.031,-0.005,-0.102,-2.24,1.91,0.1990,-0.6245,0.7776,0.061,0.085,-1.266,-11.04,-38.61,0.9680,0.0927,0.3154,-3.220,1.132,-1.385,-70.95,11.15,0.04,0.07,0.03
6363,2671.43,2544.10,2328.94,0.0505,0.0405,1.2046,0.031,0.010,0.005,-2.25,1.91,0.1921,-0.6206,0.7717,0.076,0.024,-1.434,-11.04,-38.61,0.9655,0.0946,0.3126,-3.755,0.262,0.447,-70.95,11.19,0.04,0.08,0.03
6383,1323.22,1585.93,1514.21,0.0493,0.0417,1.2000,-0.030,-0.082,0.082,-2.25,1.91,0.1897,-0.6221,0.7722,-0.259,0.024,-1.465,-11.04,-38.62,0.9629,0.0830,0.3020,-4.029,0.018,1.883,-70.97,11.20,0.05,0.08,0.04
6403,477.07,669.67,802.64,0.0518,0.0403,1.1938,0.001,-0.082,-0.163,-2.26,1.91,0.1907,-0.6267,0.7671,0.061,-0.144,-1.495,-11.04,-38.64,0.9631,0.0691,0.3008,-3.907,-0.150,1.531,-71.00,11.15,0.05,0.08,0.03
6424,913.04,852.60,993.63,0.0479,0.0344,1.2004,0.031,-0.036,-0.071,-2.26,1.91,0.1919,-0.6233,0.7747,0.229,-0.159,-1.557,-11.04,-38.63,0.9624,0.0615,0.2933,-3.480,0.278,0.020,-71.03,11.10,0.05,0.08,0.03
6444,2210.48,1947.77,1929.23,0.0447,0.0366,1.1978,0.016,-0.128,-0.147,-2.26,1.90,0.1948,-0.6284,0.7695,0.076,-0.037,-1.511,-11.04,-38.65,0.9668,0.0718,0.2880,-3.098,1.499,-1.476,-71.04,11.10,0.05,0.08,0.03
6464,2578.75,2515.09,2281.39,0.0449,0.0405,1.2034,-0.091,-0.128,-0.025,-2.26,1.90,0.1941,-0.6230,0.7734,0.260,-0.083,-1.618,-11.04,-38.64,0.9692,0.0803,0.2925,-2.518,2.720,-1.949,-71.02,11.13,0.05,0.08,0.03
6484,1138.68,1423.15,1379.63,0.0518,0.0420,1.1980,-0.014,-0.036,-0.102,-2.26,1.90,0.1985,-0.6265,0.7732,0.199,-0.067,-1.465,-11.05,-38.65,0.9717,0.0869,0.3080,-2.579,2.873,-1.491,-70.98,11.17,0.05,0.08,0.03
6504,476.26,640.66,773.63,0.0488,0.0410,1.1958,0.001,-0.036,-0.040,-2.27,1.91,0.1929,-0.6204,0.7722,0.428,0.116,-1.557,-11.04,-38.64,0.9652,0.0887,0.3223,-3.205,1.667,-0.438,-70.94,11.19,0.05,0.09,0.04
6524,1004.10,896.12,1056.48,0.0483,0.0398,1.1995,0.001,0.010,-0.086,-2.27,1.91,0.1941,-0.6230,0.7795,0.733,-0.037,-1.633,-11.04,-38.63,0.9683,0.0884,0.3158,-3.816,-0.043,0.615,-70.95,11.21,0.05,0.09,0.04
6544,2359.56,2086.37,2032.38,0.0486,0.0413,1.1953,-0.045,0.101,0.112,-2.27,1.91,0.1919,-0.6233,0.7766,0.244,-0.022,-1.404,-11.04,-38.62,0.9695,0.0814,0.3046,-4.274,-0.440,1.791,-70.98,11.20,0.05,0.10,0.04
6564,2463.52,2449.01,2234.65,0.0459,0.0430,1.1968,0.108,-0.021,-0.163,-2.26,1.91,0.1929,-0.6228,0.7754,0.168,0.009,-1.434,-11.04,-38.62,0.9663,0.0671,0.2969,-3.785,0.216,1.623,-71.01,11.16,0.05,0.10,0.04
6584,1001.68,1294.21,1266.81,0.0464,0.0388,1.2019,-0.030,-0.067,0.173,-2.26,1.91,0.1907,-0.6213,0.7717,-0.183,-0.037,-1.434,-11.04,-38.63,0.9592,0.0626,0.2953,-3.312,0.980,-0.102,-71.02,11.11,0.06,0.09,0.04
6604,477.07,618.10,764.76,0.0515,0.0396,1.1980,0.047,-0.112,0.066,-2.27,1.91,0.1931,-0.6243,0.7681,0.061,-0.129,-1.419,-11.04,-38.64,0.9613,0.0692,0.2932,-2.961,1.697,-1.904,-71.02,11.09,0.06,0.09,0.04
6624,1134.65,1029.08,1151.58,0.0481,0.0381,1.1946,0.108,-0.280,-0.147,-2.28,1.91,0.1956,-0.6243,0.7764,0.168,-0.067,-1.618,-11.04,-38.64,0.9670,0.0845,0.3004,-2.701,1.957,-2.301,-71.00,11.13,0.06,0.10,0.04
6644,2488.50,2203.22,2132.31,0.0461,0.0400,1.2009,-0.030,-0.082,-0.071,-2.28,1.91,0.1943,-0.6233,0.7739,0.153,0.009,-1.633,-11.04,-38.64,0.9703,0.0953,0.3046,-3.052,2.018,-0.896,-70.98,11.20,0.06,0.10,0.04
6664,2293.48,2333.77,2157.29,0.0491,0.0386,1.2017,0.031,0.056,-0.010,-2.28,1.91,0.1943,-0.6223,0.7749,0.336,-0.159,-1.587,-11.05,-38.64,0.9724,0.0909,0.3118,-3.480,1.071,0.722,-70.97,11.23,0.06,0.10,0.04
6685,863.08,1164.47,1169.30,0.0486,0.0342,1.1982,0.016,0.071,0.097,-2.28,1.90,0.1924,-0.6245,0.7769,0.229,0.100,-1.328,-11.04,-38.64,0.9702,0.0806,0.3103,-3.923,-0.028,1.470,-70.98,11.22,0.06,0.11,0.04
6705,495.60,591.50,750.26,0.0491,0.0425,1.1973,0.047,0.468,-0.071,-2.27,1.91,0.1980,-0.6292,0.7830,0.977,0.223,-1.679,-11.04,-38.62,0.9744,0.0699,0.2980,-3.785,-0.318,0.753,-71.02,11.18,0.06,0.10,0.04
6725,1268.42,1120.95,1237.00,0.0515,0.0415,1.2075,0.184,0.819,-0.071,-2.26,1.91,0.2036,-0.6184,0.7820,1.298,0.955,-0.549,-11.03,-38.59,0.9739,0.0817,0.2936,-3.449,2.201,-0.285,-71.01,11.20,0.06,0.10,0.04
6745,2584.40,2298.31,2191.94,0.0447,0.0437,1.1843,0.062,0.361,0.005,-2.25,1.92,0.1787,-0.6096,0.7554,-2.137,0.268,-0.473,-11.01,-38.64,0.9202,0.0831,0.3076,-3.663,1.606,0.738,-70.97,11.21,0.06,0.10,0.04
6765,2179.05,2261.25,2083.96,0.0442,0.0408,1.2104,-0.091,-0.631,-0.239,-2.26,1.92,0.1938,-0.6226,0.7856,3.649,-0.785,-3.266,-11.03,-38.56,0.9769,0.0688,0.3099,-2.869,0.094,1.119,-70.99,11.18,0.06,0.10,0.04
6785,787.33,1087.91,1090.33,0.0488,0.0403,1.1943,0.016,-0.204,0.051,-2.26,1.92,0.1880,-0.6206,0.7717,-3.481,0.177,-0.213,-11.02,-38.63,0.9669,0.0670,0.3051,-3.999,0.659,0.447,-71.00,11.13,0.07,0.10,0.04
6805,521.39,597.95,747.03,0.0500,0.0349,1.1973,-0.121,-0.280,0.112,-2.27,1.91,0.1960,-0.6260,0.7678,1.771,-0.281,-2.228,-11.03,-38.61,0.9672,0.0504,0.2957,-2.426,0.339,-1.949,-71.03,11.05,0.07,0.10,0.03
6825,1389.30,1232.97,1333.70,0.0547,0.0359,1.1960,0.077,0.239,-0.040,-2.27,1.91,0.2009,-0.6228,0.7710,-1.466,0.131,-0.992,-11.03,-38.64,0.9658,0.0999,0.2875,-2.549,1.636,-3.125,-71.03,11.16,0.07,0.10,0.03
6845,2672.23,2374.07,2254.80,0.0479,0.0374,1.2024,-0.045,0.071,-0.040,-2.27,1.90,0.1953,-0.6377,0.7673,1.954,0.177,-1.663,-11.03,-38.63,0.9772,0.0929,0.2983,-3.266,4.018,-1.369,-70.97,11.22,0.07,0.10,0.03
6865,1997.73,2129.89,1967.91,0.0449,0.0361,1.1936,0.031,0.086,-0.025,-2.27,1.90,0.1941,-0.6089,0.7861,0.962,0.039,-1.541,-11.03,-38.59,0.9666,0.1047,0.3215,-2.625,2.323,0.936,-70.92,11.30,0.07,0.11,0.04
6885,684.18,983.96,1029.89,0.0444,0.0430,1.1936,0.031,-0.067,-0.086,-2.27,1.90,0.1863,-0.6306,0.7507,-2.259,0.238,-0.686,-11.02,-38.66,0.9615,0.0792,0.3298,-4.274,-0.318,2.951,-70.92,11.26,0.07,0.11,0.04
6905,549.60,605.20,761.54,0.0454,0.0413,1.1941,0.001,-0.112,-0.040,-2.27,1.91,0.1968,-0.6155,0.7827,3.954,-0.296,-3.037,-11.03,-38.58,0.9618,0.0624,0.3042,-4.640,-2.745,1.730,-71.00,11.18,0.07,0.11,0.04
6925,1533.55,1356.26,1451.36,0.0437,0.0425,1.1948,-0.030,0.025,-0.178,-2.26,1.91,0.1890,-0.6208,0.7690,-2.885,0.391,-0.167,-11.02,-38.64,0.9662,0.0623,0.2758,-4.457,-1.249,0.600,-71.08,11.12,0.07,0.11,0.03
6945,2705.27,2436.12,2287.03,0.0444,0.0408,1.1951,-0.076,-0.158,0.021,-2.26,1.91,0.1926,-0.6165,0.7720,2.244,-0.480,-2.427,-11.03,-38.60,0.9557,0.0681,0.2704,-2.106,2.339,-1.262,-71.09,11.14,0.07,0.10,0.03
6965,1872.01,2028.35,1895.38,0.0479,0.0427,1.2007,0.001,0.071,0.005,-2.26,1.91,0.1992,-0.6223,0.7815,-1.084,-0.098,-1.007,-11.04,-38.62,0.9764,0.0730,0.2987,-1.785,5.071,-2.392,-71.01,11.16,0.07,0.10,0.03
6985,624.54,905.79,976.70,0.0486,0.0378,1.1965,-0.121,-0.051,0.005,-2.26,1.91,0.1904,-0.6262,0.7644,0.886,0.177,-1.801,-11.03,-38.61,0.9658,0.0754,0.3286,-2.258,4.049,-2.285,-70.93,11.15,0.07,0.10,0.03
7005,593.92,628.57,788.13,0.0513,0.0396,1.2053,0.092,0.071,0.066,-2.27,1.91,0.1980,-0.6187,0.7756,-0.504,-0.098,-1.373,-11.04,-38.62,0.9685,0.0985,0.3335,-3.571,0.430,-1.782,-70.91,11.19,0.07,0.11,0.04
7026,1630.26,1444.10,1512.60,0.0483,0.0359,1.2000,0.077,-0.051,0.051,-2.27,1.90,0.1863,-0.6331,0.7559,-0.870,0.162,-0.885,-11.03,-38.67,0.9757,0.1128,0.3064,-4.426,-1.448,0.432,-70.95,11.28,0.07,0.11,0.04
7046,2744.76,2490.92,2324.91,0.0398,0.0364,1.2002,0.077,0.056,0.112,-2.26,1.90,0.1919,-0.6155,0.7830,3.237,-0.159,-2.457,-11.03,-38.59,0.9606,0.0900,0.2908,-4.457,-1.142,3.791,-71.00,11.31,0.07,0.11,0.04
7066,1751.14,1941.32,1822.86,0.0457,0.0344,1.1963,-0.045,0.010,-0.132,-2.26,1.90,0.1846,-0.6272,0.7668,-2.473,0.024,-0.839,-11.02,-38.65,0.9663,0.0621,0.2878,-4.075,0.125,4.402,-71.04,11.25,0.07,0.11,0.04
7086,565.71,824.40,903.37,0.0447,0.0383,1.1975,-0.106,-0.128,-0.056,-2.26,1.89,0.1929,-0.6245,0.7773,1.893,-0.358,-2.381,-11.02,-38.62,0.9603,0.0314,0.2966,-2.945,1.026,0.539,-71.05,11.08,0.07,0.10,0.03
7106,671.28,670.48,838.10,0.0522,0.0388,1.2004,-0.030,-0.112,0.021,-2.26,1.89,0.2012,-0.6270,0.7678,-0.977,0.131,-1.022,-11.03,-38.65,0.9626,0.0494,0.2949,-2.350,1.758,-4.407,-71.05,11.01,0.07,0.10,0.03
7126,1795.46,1574.65,1625.42,0.0508,0.0396,1.2021,0.031,-0.005,0.158,-2.27,1.89,0.1992,-0.6289,0.7700,1.359,-0.129,-1.984,-11.04,-38.64,0.9701,0.0939,0.2939,-2.106,3.331,-5.507,-71.01,11.10,0.07,0.10,0.03
7146,2752.01,2523.15,2323.30,0.0493,0.0437,1.1975,0.001,0.178,0.234,-2.27,1.90,0.1980,-0.6189,0.7791,-0.092,0.009,-1.236,-11.04,-38.63,0.9720,0.1198,0.3083,-2.487,4.552,-2.392,-70.93,11.25,0.07,0.11,0.03
7166,1616.56,1838.97,1722.12,0.0420,0.0452,1.1973,-0.014,0.162,0.021,-2.26,1.90,0.1897,-0.6252,0.7705,0.183,0.192,-1.129,-11.03,-38.64,0.9703,0.1134,0.3391,-3.190,2.858,2.310,-70.85,11.34,0.07,0.12,0.04
7186,507.69,759.93,856.63,0.0432,0.0447,1.1941,-0.014,0.132,0.051,-2.25,1.91,0.1970,-0.6157,0.7791,1.466,-0.190,-2.106,-11.04,-38.60,0.9591,0.0753,0.3447,-4.640,-1.860,4.905,-70.86,11.26,0.07,0.12,0.05
7206,734.95,717.22,891.28,0.0496,0.0447,1.2012,0.001,-0.158,0.005,-2.26,1.91,0.1926,-0.6272,0.7642,-2.550,0.009,-0.824,-11.04,-38.67,0.9618,0.0546,0.3029,-5.175,-4.913,3.135,-70.99,11.14,0.07,0.12,0.05
7226,1954.21,1727.77,1751.94,0.0496,0.0356,1.1987,0.001,-0.112,0.021,-2.26,1.91,0.1926,-0.6296,0.7727,1.939,-0.281,-2.350,-11.04,-38.64,0.9624,0.0516,0.2618,-3.831,-2.272,0.112,-71.10,11.07,0.07,0.11,0.04
7246,2698.83,2553.77,2337.80,0.0513,0.0403,1.1975,-0.030,-0.067,0.143,-2.27,1.91,0.1985,-0.6235,0.7700,-1.099,0.116,-0.854,-11.05,-38.67,0.9617,0.0631,0.2555,-1.968,3.499,-2.530,-71.11,11.08,0.07,0.11,0.04
7266,1478.75,1701.98,1616.56,0.0459,0.0386,1.1948,-0.014,0.071,0.158,-2.26,1.90,0.1953,-0.6267,0.7668,1.115,-0.205,-1.923,-11.05,-38.66,0.9650,0.0767,0.2949,-0.854,7.255,-3.430,-70.99,11.14,0.07,0.11,0.04
7286,498.83,717.22,822.78,0.0444,0.0410,1.1997,-0.030,-0.051,0.021,-2.26,1.91,0.1941,-0.6216,0.7771,-0.321,0.024,-1.282,-11.05,-38.67,0.9655,0.0891,0.3352,-2.075,5.499,-2.835,-70.87,11.17,0.07,0.12,0.05
7306,850.18,795.38,941.25,0.0486,0.0364,1.1965,0.031,0.071,0.066,-2.26,1.90,0.1912,-0.6282,0.7651,0.626,0.100,-1.557,-11.05,-38.67,0.9701,0.1011,0.3486,-3.342,-0.058,-1.430,-70.84,11.20,0.07,0.13,0.06
7327,2093.63,1857.51,1856.70,0.0466,0.0435,1.1973,0.016,0.056,0.021,-2.26,1.91,0.1946,-0.6199,0.7827,0.733,-0.205,-1.618,-11.05,-38.65,0.9681,0.1056,0.3120,-4.976,-3.264,1.989,-70.91,11.26,0.07,0.13,0.06
7347,2644.03,2536.04,2324.10,0.0486,0.0422,1.1990,-0.030,0.010,-0.117,-2.26,1.91,0.1960,-0.6294,0.7712,-1.343,0.085,-1.053,-11.05,-38.69,0.9725,0.0819,0.2782,-4.747,-2.471,4.280,-71.01,11.27,0.06,0.13,0.06
7367,1278.90,1541.61,1468.28,0.0496,0.0408,1.1970,-0.076,0.056,-0.040,-2.26,1.91,0.1943,-0.6194,0.7810,2.229,0.055,-2.030,-11.05,-38.64,0.9601,0.0541,0.2744,-3.495,0.766,3.501,-71.05,11.20,0.06,0.12,0.06
7387,477.07,655.97,773.63,0.0486,0.0393,1.1958,-0.060,0.056,-0.071,-2.26,1.91,0.1960,-0.6218,0.7693,-1.313,0.146,-0.992,-11.05,-38.67,0.9528,0.0338,0.2955,-2.762,2.644,-0.270,-71.03,11.05,0.06,0.12,0.05
7407,937.22,872.75,1009.74,0.0510,0.0378,1.1934,0.047,-0.067,0.082,-2.27,1.90,0.1968,-0.6279,0.7773,1.084,-0.205,-1.923,-11.06,-38.65,0.9657,0.0559,0.3044,-2.045,2.736,-4.484,-71.00,10.99,0.06,0.12,0.05
7427,2274.14,2010.62,1959.85,0.0459,0.0432,1.2002,-0.030,-0.005,-0.117,-2.27,1.91,0.1907,-0.6228,0.7732,-0.947,0.177,-1.099,-11.05,-38.68,0.9667,0.0972,0.3051,-2.503,2.568,-4.881,-70.96,11.08,0.06,0.12,0.06
7447,2527.18,2474.80,2265.27,0.0452,0.0391,1.1934,0.016,-0.036,-0.086,-2.26,1.91,0.1907,-0.6226,0.7729,0.962,-0.159,-1.755,-11.05,-38.66,0.9685,0.1183,0.3099,-3.113,2.293,-1.629,-70.92,11.21,0.06,0.12,0.06
7467,1122.56,1404.62,1356.26,0.0442,0.0398,1.2017,-0.076,-0.173,0.066,-2.26,1.91,0.1899,-0.6233,0.7764,-0.122,-0.129,-1.541,-11.05,-38.66,0.9716,0.1040,0.3167,-3.678,0.980,2.676,-70.90,11.28,0.06,0.13,0.07
7487,467.40,631.79,762.34,0.0432,0.0396,1.1985,0.001,-0.097,-0.224,-2.26,1.90,0.1899,-0.6326,0.7673,-0.275,0.131,-1.328,-11.04,-38.69,0.9620,0.0735,0.3156,-4.472,-0.974,3.913,-70.93,11.23,0.06,0.13,0.07
7507,1060.51,979.93,1118.53,0.0454,0.0369,1.1980,0.001,-0.005,0.112,-2.26,1.90,0.1934,-0.6189,0.7847,1.527,-0.067,-2.091,-11.04,-38.65,0.9615,0.0549,0.2950,-4.457,-2.272,1.989,-71.01,11.13,0.06,0.13,0.07
7527,2412.75,2153.26,2062.20,0.0464,0.0422,1.1985,-0.106,0.025,-0.056,-2.26,1.90,0.1938,-0.6299,0.7725,-1.008,0.024,-1.007,-11.04,-38.68,0.9631,0.0564,0.2700,-3.404,-0.516,-0.652,-71.08,11.07,0.06,0.12,0.06
7547,2370.04,2381.32,2191.14,0.0466,0.0430,1.1934,-0.014,0.010,0.066,-2.26,1.91,0.1960,-0.6216,0.7722,1.267,-0.144,-2.015,-11.04,-38.66,0.9636,0.0677,0.2777,-2.381,3.148,-2.407,-71.07,11.08,0.06,0.11,0.05
7568,946.08,1250.70,1233.77,0.0444,0.0417,1.1973,0.016,-0.005,-0.163,-2.26,1.91,0.1882,-0.6182,0.7725,-0.183,0.116,-1.282,-11.04,-38.66,0.9666,0.0802,0.3077,-1.816,5.194,-2.591,-70.98,11.11,0.06,0.11,0.05
7588,481.90,607.62,750.26,0.0483,0.0408,1.1963,0.031,0.086,0.143,-2.26,1.91,0.1936,-0.6218,0.7749,0.840,-0.052,-1.740,-11.04,-38.65,0.9677,0.0887,0.3322,-2.335,3.636,-1.690,-70.90,11.15,0.06,0.12,0.06
7608,1215.24,1097.58,1212.01,0.0486,0.0430,1.2007,0.077,0.025,0.066,-2.26,1.91,0.1982,-0.6201,0.7749,-0.076,-0.022,-1.633,-11.04,-38.65,0.9675,0.0953,0.3350,-3.968,-0.165,-0.133,-70.89,11.16,0.06,0.13,0.06
7628,2561.83,2295.90,2182.27,0.0483,0.0427,1.1963,0.001,0.056,0.127,-2.26,1.92,0.1982,-0.6265,0.7661,-0.550,0.009,-1.266,-11.05,-38.67,0.9657,0.0925,0.3127,-4.854,-2.379,1.623,-70.94,11.17,0.06,0.13,0.07
7648,2210.48,2273.33,2092.82,0.0498,0.0369,1.1953,-0.045,0.010,0.036,-2.26,1.91,0.1943,-0.6226,0.7800,0.534,-0.159,-1.694,-11.05,-38.66,0.9669,0.0802,0.2834,-4.518,-1.738,2.509,-71.02,11.18,0.06,0.12,0.06
7668,792.16,1106.45,1121.76,0.0474,0.0374,1.1965,-0.121,0.010,0.112,-2.26,1.91,0.1931,-0.6277,0.7644,-0.519,-0.006,-0.976,-11.05,-38.68,0.9624,0.0646,0.2845,-3.526,0.995,1.623,-71.04,11.14,0.06,0.12,0.06
7688,502.86,585.86,743.81,0.0457,0.0386,1.2021,-0.076,0.086,0.189,-2.26,1.90,0.1912,-0.6255,0.7712,0.901,0.024,-1.373,-11.05,-38.67,0.9600,0.0568,0.2937,-2.701,2.827,-0.759,-71.02,11.08,0.06,0.12,0.06
7708,1391.72,1237.00,1332.89,0.0442,0.0369,1.2024,0.031,0.040,-0.056,-2.25,1.90,0.1934,-0.6267,0.7661,-0.198,-0.006,-1.389,-11.05,-38.69,0.9667,0.0687,0.3042,-2.152,2.537,-2.713,-70.99,11.07,0.06,0.11,0.06
7728,2648.86,2374.87,2245.13,0.0466,0.0391,1.1948,0.123,0.040,-0.056,-2.25,1.90,0.1934,-0.6248,0.7673,0.718,0.009,-1.495,-11.05,-38.68,0.9651,0.0887,0.3069,-2.778,1.926,-2.682,-70.97,11.12,0.06,0.11,0.06
7748,2044.47,2158.90,1988.06,0.0461,0.0425,1.2002,0.047,0.040,-0.239,-2.25,1.91,0.1948,-0.6196,0.7698,0.595,-0.037,-1.557,-11.05,-38.68,0.9688,0.1001,0.3070,-3.190,1.346,-0.636,-70.95,11.20,0.06,0.12,0.06
7768,671.28,970.26,1017.00,0.0452,0.0427,1.2036,0.016,0.117,0.066,-2.24,1.91,0.1936,-0.6216,0.7812,0.290,0.131,-1.557,-11.05,-38.67,0.9702,0.0927,0.3124,-3.678,1.163,1.608,-70.94,11.23,0.05,0.12,0.06
7788,554.43,626.96,774.43,0.0491,0.0442,1.1948,0.077,0.101,-0.071,-2.24,1.92,0.1936,-0.6189,0.7778,0.550,0.024,-1.694,-11.05,-38.65,0.9648,0.0732,0.3110,-4.106,0.445,2.310,-70.95,11.19,0.05,0.12,0.07
7809,1568.21,1385.27,1469.89,0.0486,0.0457,1.2017,0.062,0.086,-0.117,-2.24,1.92,0.1970,-0.6199,0.7727,0.214,-0.067,-1.434,-11.05,-38.65,0.9626,0.0603,0.3042,-3.862,-0.486,1.104,-70.98,11.11,0.05,0.12,0.07
7829,2723.81,2465.13,2299.93,0.0486,0.0439,1.1987,0.016,-0.021,0.112,-2.25,1.93,0.1946,-0.6208,0.7786,0.122,-0.083,-1.495,-11.05,-38.65,0.9601,0.0646,0.2926,-3.587,0.064,-0.560,-71.01,11.07,0.05,0.11,0.06
7849,1830.92,2013.04,1865.57,0.0459,0.0415,1.2004,-0.030,-0.235,-0.025,-2.25,1.93,0.1936,-0.6248,0.7754,-0.687,-0.129,-1.480,-11.05,-38.66,0.9694,0.0696,0.2900,-2.854,1.529,-1.843,-71.02,11.06,0.05,0.11,0.06
7869,603.59,900.15,938.83,0.0496,0.0393,1.1992,-0.030,-0.189,-0.147,-2.26,1.92,0.1892,-0.6235,0.7632,-0.412,0.009,-1.526,-11.05,-38.68,0.9637,0.0841,0.2968,-2.778,2.751,-1.827,-70.99,11.10,0.05,0.11,0.06
7889,604.40,644.69,813.11,0.0454,0.0359,1.1982,-0.045,-0.173,-0.025,-2.26,1.92,0.1929,-0.6235,0.7693,0.641,-0.174,-1.755,-11.05,-38.68,0.9681,0.0878,0.3052,-2.762,2.064,-1.003,-70.97,11.15,0.05,0.11,0.06
7909,1653.63,1459.41,1533.55,0.0454,0.0364,1.1975,0.016,-0.143,0.051,-2.26,1.92,0.1882,-0.6248,0.7720,0.137,-0.220,-1.557,-11.05,-38.68,0.9668,0.0914,0.3099,-3.541,0.766,0.295,-70.96,11.18,0.05,0.11,0.06
7929,2720.59,2486.89,2312.01,0.0469,0.0400,1.2056,-0.045,-0.112,-0.010,-2.26,1.92,0.1956,-0.6240,0.7756,0.412,-0.174,-1.648,-11.06,-38.68,0.9669,0.0779,0.3059,-3.999,-0.257,1.104,-70.99,11.17,0.05,0.11,0.06
7949,1745.49,1945.35,1813.99,0.0479,0.0430,1.2021,0.001,-0.051,-0.071,-2.26,1.92,0.1968,-0.6262,0.7751,0.748,0.039,-1.679,-11.06,-38.67,0.9681,0.0757,0.2966,-3.617,0.262,0.783,-71.01,11.16,0.05,0.11,0.06
7969,558.46,819.56,898.53,0.0469,0.0413,1.2012,-0.030,0.086,0.127,-2.26,1.92,0.1980,-0.6221,0.7756,0.443,0.192,-1.297,-11.06,-38.66,0.9677,0.0703,0.2936,-3.266,1.743,-0.163,-71.01,11.14,0.05,0.11,0.06
7989,689.01,689.01,860.66,0.0417,0.0474,1.1956,0.031,0.086,0.143,-2.25,1.93,0.1934,-0.6157,0.7717,0.458,0.070,-1.389,-11.06,-38.65,0.9608,0.0742,0.3062,-2.426,2.445,-1.156,-70.98,11.14,0.05,0.11,0.06
8009,1830.11,1615.75,1642.34,0.0454,0.0469,1.2024,0.077,0.056,-0.040,-2.25,1.93,0.1938,-0.6206,0.7795,0.305,0.116,-1.480,-11.05,-38.64,0.9650,0.0814,0.3148,-2.778,2.003,-0.804,-70.95,11.15,0.05,0.11,0.06
8029,2711.72,2540.07,2340.22,0.0491,0.0437,1.1963,0.047,0.178,0.265,-2.25,1.94,0.1938,-0.6243,0.7778,0.046,-0.006,-1.587,-11.05,-38.64,0.9613,0.0837,0.3187,-3.571,0.598,-0.011,-70.94,11.16,0.05,0.11,0.07
8049,1560.15,1783.37,1685.05,0.0500,0.0354,1.2043,-0.045,0.071,0.021,-2.25,1.93,0.1958,-0.6260,0.7729,-0.534,-0.067,-1.511,-11.06,-38.66,0.9696,0.0856,0.3032,-3.770,-0.730,0.554,-70.97,11.17,0.05,0.11,0.07
8069,502.86,724.47,839.71,0.0479,0.0347,1.1995,0.016,0.117,0.097,-2.25,1.93,0.1909,-0.6270,0.7686,0.107,0.009,-1.465,-11.05,-38.67,0.9684,0.0764,0.2921,-4.060,-0.242,0.890,-71.01,11.16,0.05,0.11,0.07
8090,790.55,746.23,917.07,0.0442,0.0334,1.1946,0.031,0.056,0.021,-2.24,1.92,0.1921,-0.6260,0.7688,0.015,0.009,-1.358,-11.05,-38.68,0.9673,0.0726,0.2874,-3.388,0.873,0.432,-71.03,11.16,0.05,0.11,0.06
8110,2036.41,1797.88,1805.13,0.0493,0.0369,1.1980,-0.014,-0.112,-0.025,-2.25,1.92,0.1892,-0.6262,0.7693,0.046,0.024,-1.526,-11.04,-38.69,0.9631,0.0720,0.2946,-3.022,1.835,-0.270,-71.03,11.15,0.05,0.10,0.06
8130,2667.40,2540.07,2326.52,0.0452,0.0378,1.1965,0.031,0.071,-0.056,-2.24,1.92,0.1919,-0.6252,0.7737,0.718,0.116,-1.495,-11.04,-38.68,0.9683,0.0715,0.2977,-2.869,2.201,-0.942,-71.01,11.14,0.05,0.10,0.06
8150,1372.38,1624.62,1546.45,0.0449,0.0381,1.2024,0.047,0.147,-0.132,-2.24,1.91,0.1912,-0.6248,0.7773,0.733,0.100,-1.541,-11.03,-38.66,0.9691,0.0801,0.3062,-3.068,1.957,-1.018,-70.99,11.15,0.05,0.10,0.06
8170,476.26,699.49,781.68,0.0481,0.0459,1.1982,-0.014,0.162,0.036,-2.24,1.92,0.1907,-0.6230,0.7864,0.550,0.146,-1.541,-11.03,-38.65,0.9678,0.0839,0.3063,-3.342,1.453,-0.178,-70.98,11.17,0.05,0.10,0.05
8190,915.46,863.88,1004.91,0.0496,0.0486,1.1858,0.062,0.071,-0.086,-2.24,1.93,0.1958,-0.6152,0.7708,-0.030,0.055,-1.434,-11.03,-38.65,0.9642,0.0822,0.3093,-3.541,0.980,0.585,-70.98,11.17,0.05,0.10,0.05
8210,2208.86,1955.82,1930.04,0.0520,0.0427,1.1953,0.031,0.071,0.097,-2.24,1.93,0.1975,-0.6160,0.7749,0.412,0.009,-1.557,-11.03,-38.64,0.9617,0.0763,0.3066,-3.785,0.537,0.615,-70.98,11.15,0.05,0.10,0.05
8230,2584.40,2500.59,2291.06,0.0476,0.0457,1.1978,-0.152,0.010,0.051,-2.24,1.93,0.1970,-0.6179,0.7722,-0.321,-0.144,-1.312,-11.04,-38.64,0.9612,0.0715,0.3019,-3.434,0.216,-0.041,-71.00,11.13,0.05,0.10,0.05
8250,1178.97,1478.75,1419.12,0.0479,0.0376,1.2002,-0.106,-0.097,0.097,-2.25,1.93,0.1963,-0.6296,0.7717,-0.137,-0.037,-1.419,-11.04,-38.66,0.9670,0.0750,0.2972,-3.404,0.659,-0.575,-71.01,11.12,0.05,0.10,0.05
8270,472.23,647.11,759.12,0.0474,0.0361,1.1973,-0.106,-0.143,0.158,-2.25,1.92,0.1924,-0.6289,0.7732,0.122,-0.006,-1.343,-11.04,-38.66,0.9746,0.0800,0.2971,-3.266,1.255,-0.499,-71.02,11.14,0.05,0.10,0.05
8290,1029.08,924.32,1087.11,0.0483,0.0347,1.2009,-0.045,0.010,-0.010,-2.25,1.92,0.1899,-0.6262,0.7747,-0.107,-0.052,-1.389,-11.04,-38.67,0.9686,0.0812,0.2974,-3.236,1.453,-0.407,-71.02,11.16,0.05,0.09,0.05
8310,2352.31,2082.34,2046.08,0.0505,0.0361,1.1980,-0.030,-0.143,0.112,-2.26,1.91,0.1897,-0.6274,0.7637,0.046,-0.067,-1.602,-11.04,-38.69,0.9663,0.0804,0.2977,-3.373,1.224,-0.194,-71.02,11.17,0.05,0.09,0.04
8330,2451.43,2439.34,2225.79,0.0430,0.0383,1.1924,-0.030,-0.158,-0.117,-2.26,1.91,0.1887,-0.6191,0.7632,0.397,-0.113,-1.709,-11.03,-38.69,0.9634,0.0751,0.3002,-3.449,0.583,0.020,-71.03,11.16,0.05,0.09,0.04
8351,1029.89,1326.45,1314.36,0.0464,0.0391,1.1960,-0.045,-0.326,0.036,-2.26,1.91,0.1951,-0.6221,0.7771,0.962,-0.266,-1.953,-11.04,-38.67,0.9612,0.0757,0.2974,-3.373,0.949,0.066,-71.04,11.16,0.05,0.09,0.04
8371,485.13,609.23,758.32,0.0481,0.0483,1.2043,-0.091,-0.173,0.005,-2.26,1.92,0.1941,-0.6260,0.7864,0.382,-0.235,-1.679,-11.04,-38.66,0.9672,0.0701,0.3016,-3.098,1.789,-0.148,-71.03,11.13,0.05,0.09,0.04
8391,1151.58,1036.34,1169.30,0.0469,0.0413,1.2053,-0.060,-0.036,0.250,-2.26,1.92,0.1931,-0.6177,0.7764,0.244,-0.022,-1.495,-11.04,-38.65,0.9678,0.0688,0.3145,-2.839,2.293,-0.789,-70.99,11.10,0.05,0.09,0.04
8411,2514.29,2214.51,2132.31,0.0515,0.0437,1.1982,0.031,0.010,0.066,-2.27,1.92,0.1975,-0.6155,0.7698,-0.214,-0.022,-1.526,-11.05,-38.65,0.9640,0.0753,0.3202,-2.900,1.621,-1.430,-70.96,11.09,0.05,0.09,0.04
8431,2256.41,2307.18,2125.86,0.0503,0.0425,1.1946,0.016,-0.158,-0.040,-2.27,1.92,0.1953,-0.6240,0.7751,-0.305,-0.083,-1.389,-11.05,-38.66,0.9684,0.0852,0.3091,-3.190,0.461,-1.385,-70.97,11.11,0.05,0.10,0.04
8451,834.07,1138.68,1147.55,0.0503,0.0403,1.1956,0.001,0.071,0.021,-2.28,1.92,0.1946,-0.6301,0.7705,0.199,0.039,-1.465,-11.05,-38.67,0.9716,0.0946,0.3026,-3.709,0.110,0.096,-70.99,11.16,0.05,0.10,0.04
8471,491.58,605.20,753.48,0.0435,0.0386,1.1970,0.016,0.071,0.082,-2.27,1.92,0.1956,-0.6245,0.7708,0.244,0.100,-1.373,-11.05,-38.67,0.9690,0.0812,0.2982,-3.862,0.537,1.806,-71.00,11.17,0.06,0.10,0.04
8491,1298.24,1147.55,1267.62,0.0444,0.0325,1.1951,-0.014,-0.051,-0.224,-2.27,1.91,0.1946,-0.6287,0.7686,-0.366,-0.159,-1.373,-11.06,-38.69,0.9650,0.0682,0.2966,-3.892,0.262,1.913,-71.03,11.13,0.06,0.10,0.04
8511,2591.65,2306.37,2204.84,0.0471,0.0308,1.2090,-0.045,-0.005,0.051,-2.27,1.90,0.1914,-0.6375,0.7732,-0.137,-0.052,-1.557,-11.05,-38.71,0.9702,0.0588,0.2943,-3.648,0.216,-0.011,-71.06,11.06,0.06,0.09,0.04
8531,2140.37,2231.43,2057.36,0.0503,0.0344,1.1956,0.016,-0.051,0.005,-2.27,1.90,0.1968,-0.6270,0.7610,0.718,0.085,-1.511,-11.05,-38.71,0.9666,0.0720,0.2852,-3.052,1.194,-2.133,-71.08,11.06,0.06,0.09,0.03
8551,738.97,1053.26,1067.77,0.0466,0.0364,1.2012,-0.014,0.086,-0.102,-2.27,1.89,0.1958,-0.6228,0.7747,1.008,-0.037,-1.709,-11.06,-38.69,0.9690,0.0862,0.2903,-2.411,2.873,-2.255,-71.05,11.12,0.06,0.09,0.03
8571,526.23,601.98,760.73,0.0474,0.0447,1.2000,0.031,0.071,0.127,-2.27,1.90,0.1941,-0.6194,0.7717,0.137,0.070,-1.511,-11.06,-38.69,0.9720,0.0963,0.3086,-2.549,3.835,-0.774,-70.99,11.20,0.06,0.09,0.03
8591,1410.26,1237.00,1371.58,0.0486,0.0413,1.1965,-0.060,0.071,0.051,-2.27,1.90,0.1902,-0.6189,0.7688,0.534,0.009,-1.602,-11.05,-38.68,0.9624,0.0852,0.3306,-3.312,1.957,0.707,-70.94,11.20,0.06,0.10,0.04
8612,2676.26,2403.08,2266.08,0.0488,0.0417,1.1997,-0.076,0.010,0.112,-2.27,1.90,0.1965,-0.6199,0.7759,0.687,-0.067,-1.648,-11.06,-38.67,0.9655,0.0802,0.3269,-4.014,-0.959,1.119,-70.95,11.17,0.06,0.10,0.04
8632,1948.57,2101.69,1946.96,0.0481,0.0420,1.2012,0.077,0.010,-0.010,-2.27,1.90,0.1921,-0.6221,0.7737,-0.779,-0.006,-1.236,-11.06,-38.69,0.9641,0.0753,0.3031,-4.625,-2.013,1.089,-71.01,11.13,0.06,0.10,0.04
8652,646.30,939.63,1004.91,0.0466,0.0410,1.1970,0.001,-0.036,0.127,-2.27,1.91,0.1912,-0.6267,0.7683,-0.092,-0.006,-1.465,-11.05,-38.70,0.9635,0.0686,0.2823,-3.968,-0.364,0.799,-71.07,11.11,0.06,0.10,0.04
8672,582.64,622.93,787.33,0.0457,0.0415,1.1946,-0.030,-0.036,0.082,-2.27,1.91,0.1929,-0.6260,0.7754,0.290,-0.006,-1.465,-11.05,-38.70,0.9661,0.0684,0.2841,-2.961,2.110,-0.163,-71.07,11.10,0.06,0.09,0.04
8692,1536.78,1373.19,1445.71,0.0483,0.0359,1.2031,0.016,0.101,0.051,-2.27,1.90,0.1919,-0.6262,0.7739,0.183,-0.052,-1.480,-11.05,-38.70,0.9677,0.0693,0.3008,-2.564,3.270,-1.446,-71.03,11.08,0.06,0.09,0.03
8712,2718.97,2453.04,2303.96,0.0486,0.0378,1.1995,0.077,0.071,-0.071,-2.27,1.90,0.1938,-0.6270,0.7698,0.168,0.100,-1.328,-11.05,-38.71,0.9659,0.0803,0.3053,-2.487,2.354,-2.026,-71.00,11.11,0.06,0.09,0.04
8732,1784.98,1975.16,1823.66,0.0452,0.0356,1.2019,-0.030,0.071,-0.040,-2.26,1.90,0.1899,-0.6218,0.7720,0.992,0.055,-1.694,-11.04,-38.69,0.9675,0.0942,0.3143,-3.327,1.087,-0.957,-70.98,11.15,0.06,0.09,0.04
8752,574.58,851.79,925.13,0.0496,0.0425,1.2026,0.062,0.040,0.173,-2.26,1.90,0.1980,-0.6211,0.7749,0.519,0.024,-1.724,-11.05,-38.68,0.9711,0.0938,0.3020,-3.877,0.293,0.936,-71.00,11.20,0.06,0.09,0.04
8772,631.79,657.58,821.98,0.0444,0.0422,1.1926,-0.045,-0.005,0.234,-2.26,1.90,0.1958,-0.6172,0.7646,-0.412,0.039,-1.282,-11.05,-38.69,0.9634,0.0815,0.3037,-3.923,0.384,1.974,-71.01,11.20,0.06,0.09,0.04
8792,1717.29,1498.90,1585.13,0.0466,0.0417,1.1963,-0.091,-0.067,0.021,-2.26,1.90,0.1985,-0.6213,0.7690,0.886,-0.144,-1.892,-11.06,-38.68,0.9636,0.0614,0.2965,-3.449,0.384,1.119,-71.03,11.14,0.06,0.09,0.04
8812,2723.00,2507.03,2324.10,0.0493,0.0420,1.1990,0.001,-0.036,0.112,-2.26,1.91,0.1958,-0.6238,0.7722,-0.030,0.039,-1.373,-11.06,-38.69,0.9603,0.0637,0.2982,-3.220,0.797,-0.774,-71.04,11.10,0.06,0.09,0.04
8832,1684.25,1872.01,1771.28,0.0483,0.0374,1.1978,-0.091,0.010,0.082,-2.26,1.90,0.1968,-0.6299,0.7695,-0.702,0.039,-1.358,-11.06,-38.71,0.9694,0.0756,0.2954,-3.098,1.468,-1.751,-71.04,11.10,0.05,0.09,0.03
8852,560.07,812.31,889.67,0.0439,0.0398,1.1990,-0.030,0.086,-0.056,-2.26,1.90,0.1899,-0.6235,0.7688,0.321,0.024,-1.419,-11.06,-38.71,0.9692,0.0898,0.2950,-2.793,1.667,-1.583,-71.04,11.16,0.05,0.09,0.03
8872,693.85,695.46,875.97,0.0505,0.0347,1.1826,-0.014,0.056,0.082,-2.26,1.90,0.1980,-0.6150,0.7671,1.176,0.100,-1.557,-11.06,-38.69,0.9714,0.0938,0.3033,-3.236,2.247,-0.163,-71.01,11.22,0.05,0.09,0.03
8892,1869.60,1631.87,1689.08,0.0476,0.0432,1.2100,-0.091,0.086,0.219,-2.26,1.90,0.1917,-0.6279,0.7693,-0.687,-0.510,-1.831,-11.07,-38.71,0.9731,0.0836,0.3077,-3.358,0.125,-0.438,-71.02,11.23,0.05,0.09,0.03
8913,2708.50,2540.07,2326.52,0.0435,0.0386,1.1953,0.031,0.162,0.051,-2.25,1.90,0.1948,-0.6216,0.7825,2.458,0.558,-2.015,-11.06,-38.66,0.9752,0.0864,0.3035,-4.365,1.194,2.127,-71.02,11.24,0.05,0.09,0.03
8933,1518.24,1740.66,1655.24,0.0430,0.0405,1.2075,0.031,-0.005,-0.163,-2.25,1.90,0.1863,-0.6289,0.7734,-1.252,-0.144,-1.847,-11.05,-38.69,0.9609,0.0576,0.3060,-4.594,-0.471,2.524,-71.05,11.14,0.05,0.08,0.03
8953,501.25,745.42,842.93,0.0537,0.0366,1.1992,-0.030,-0.097,-0.102,-2.26,1.89,0.1934,-0.6255,0.7810,-0.488,-0.144,-0.854,-11.05,-38.70,0.9504,0.0603,0.2996,-4.274,-0.348,-0.499,-71.08,11.06,0.05,0.08,0.03
8973,794.58,755.90,928.35,0.0557,0.0371,1.1992,0.001,-0.036,-0.040,-2.27,1.89,0.2002,-0.6355,0.7632,-1.237,-0.098,-0.747,-11.06,-38.75,0.9681,0.0726,0.2767,-3.495,1.392,-2.652,-71.10,11.06,0.05,0.07,0.02
8993,2062.20,1829.30,1825.27,0.0483,0.0410,1.1899,0.031,0.010,0.082,-2.27,1.89,0.1909,-0.6130,0.7722,5.603,0.009,-2.961,-11.06,-38.63,0.9684,0.0940,0.2855,-0.915,3.881,-3.659,-71.06,11.19,0.05,0.07,0.02
9013,2644.84,2515.09,2303.96,0.0417,0.0439,1.1995,-0.030,0.010,0.005,-2.26,1.90,0.1904,-0.6167,0.7825,-2.840,0.284,-0.167,-11.05,-38.68,0.9663,0.1111,0.3245,-1.953,5.270,-0.453,-70.94,11.30,0.05,0.08,0.03
9033,1276.48,1560.95,1481.17,0.0437,0.0449,1.2014,0.108,0.117,-0.025,-2.26,1.90,0.1907,-0.6260,0.7639,0.168,-0.281,-1.770,-11.05,-38.69,0.9669,0.0824,0.3518,-3.907,1.316,2.768,-70.89,11.27,0.05,0.09,0.04
9053,467.40,681.76,776.04,0.0525,0.0410,1.2004,0.047,0.040,0.082,-2.26,1.91,0.1973,-0.6243,0.7837,1.008,0.131,-1.557,-11.05,-38.67,0.9594,0.0623,0.3347,-5.434,-4.150,2.280,-70.96,11.14,0.05,0.09,0.04
9073,904.98,862.27,1006.52,0.0532,0.0356,1.2012,0.108,0.025,0.112,-2.26,1.90,0.1912,-0.6326,0.7642,-1.267,0.055,-1.557,-11.05,-38.71,0.9628,0.0667,0.2744,-5.266,-3.722,0.157,-71.09,11.09,0.05,0.08,0.03
9093,2247.55,1984.84,1942.93,0.0481,0.0364,1.1980,0.016,0.132,0.127,-2.26,1.90,0.1938,-0.6255,0.7686,0.321,-0.266,-1.679,-11.05,-38.72,0.9739,0.0830,0.2379,-2.808,0.644,-0.438,-71.16,11.20,0.05,0.07,0.02
9113,2544.10,2467.55,2264.47,0.0447,0.0381,1.1985,0.092,-0.112,-0.010,-2.26,1.90,0.1860,-0.6282,0.7644,0.183,0.329,-0.549,-11.04,-38.73,0.9572,0.0704,0.2789,-1.312,6.216,-0.423,-71.08,11.23,0.05,0.07,0.02
9133,1115.31,1416.70,1374.80,0.0403,0.0378,1.2046,-0.045,-0.021,-0.040,-2.26,1.90,0.1980,-0.6201,0.7881,2.733,-0.296,-2.747,-11.05,-38.66,0.9629,0.0627,0.3303,-1.358,6.140,-1.324,-70.96,11.20,0.05,0.07,0.02
9154,473.85,622.12,755.90,0.0464,0.0393,1.1975,-0.014,0.056,-0.025,-2.25,1.90,0.1895,-0.6331,0.7698,-3.450,0.238,-0.366,-11.04,-38.74,0.9666,0.0759,0.3428,-3.251,0.354,-2.484,-70.93,11.16,0.05,0.08,0.03
9174,1071.79,961.39,1117.73,0.0522,0.0417,1.2039,0.031,-0.051,-0.040,-2.26,1.90,0.1973,-0.6318,0.7673,2.290,-0.098,-2.183,-11.04,-38.71,0.9695,0.1039,0.3105,-3.846,-2.577,-2.072,-70.99,11.23,0.05,0.08,0.03
9194,2421.61,2153.26,2062.20,0.0464,0.0417,1.1985,0.047,0.071,-0.086,-2.26,1.90,0.1941,-0.6184,0.7798,1.237,0.116,-1.572,-11.04,-38.68,0.9753,0.1177,0.2751,-4.091,-1.035,1.409,-71.05,11.39,0.05,0.08,0.03
9214,2385.35,2408.72,2205.64,0.0466,0.0422,1.1934,0.031,0.056,0.036,-2.26,1.91,0.1909,-0.6284,0.7659,-1.481,0.162,-1.037,-11.03,-38.73,0.9650,0.0791,0.2859,-3.312,2.110,4.295,-71.04,11.40,0.06,0.08,0.02
9234,969.45,1272.45,1262.78,0.0415,0.0444,1.1897,-0.030,-0.036,0.051,-2.25,1.91,0.1958,-0.6191,0.7795,1.420,-0.190,-2.213,-11.04,-38.69,0.9531,0.0468,0.3164,-3.129,3.010,2.554,-70.99,11.28,0.06,0.08,0.02
9254,482.71,615.68,762.34,0.0474,0.0398,1.2000,-0.014,0.025,0.082,-2.25,1.91,0.1907,-0.6250,0.7747,-0.275,0.253,-0.885,-11.03,-38.70,0.9600,0.0382,0.3218,-3.358,0.247,-1.568,-71.00,11.13,0.06,0.08,0.02
9274,1183.00,1056.48,1178.17,0.0515,0.0410,1.1980,0.031,-0.067,-0.132,-2.26,1.91,0.2009,-0.6233,0.7791,0.733,-0.220,-2.015,-11.04,-38.69,0.9653,0.0681,0.2942,-2.854,-0.944,-4.591,-71.05,11.11,0.06,0.08,0.02
9294,2519.93,2230.62,2159.71,0.0457,0.0391,1.2014,0.062,-0.067,-0.132,-2.26,1.91,0.1936,-0.6318,0.7620,-2.259,0.284,-0.778,-11.04,-38.75,0.9814,0.1167,0.2722,-2.365,2.155,-3.125,-71.05,11.30,0.06,0.08,0.02
9314,2277.36,2320.88,2140.37,0.0435,0.0374,1.1956,0.047,0.010,0.005,-2.25,1.91,0.1904,-0.6250,0.7727,2.672,0.070,-2.091,-11.03,-38.70,0.9744,0.1100,0.2944,-2.793,4.186,1.180,-70.99,11.43,0.06,0.08,0.02
9334,875.97,1193.48,1175.75,0.0439,0.0403,1.2034,-0.014,0.025,0.112,-2.25,1.91,0.1946,-0.6184,0.7739,-0.137,-0.159,-1.587,-11.04,-38.70,0.9656,0.0770,0.3352,-3.297,2.384,3.211,-70.93,11.40,0.06,0.08,0.03
9354,502.86,598.75,753.48,0.0452,0.0386,1.2021,-0.045,0.040,-0.056,-2.25,1.91,0.1931,-0.6328,0.7605,-1.282,0.085,-1.251,-11.03,-38.75,0.9630,0.0585,0.3312,-4.900,-1.646,1.898,-70.96,11.27,0.06,0.09,0.03
9374,1276.48,1146.74,1274.07,0.0471,0.0422,1.2000,0.077,0.040,0.021,-2.25,1.91,0.2000,-0.6230,0.7751,1.802,-0.037,-1.953,-11.04,-38.72,0.9661,0.0624,0.2904,-4.961,-3.341,-0.850,-71.06,11.19,0.06,0.08,0.03
9394,2591.65,2322.49,2208.86,0.0474,0.0405,1.1958,0.031,0.117,0.082,-2.24,1.91,0.1926,-0.6206,0.7666,-0.076,0.116,-1.205,-11.04,-38.72,0.9670,0.0881,0.2537,-3.236,0.507,-1.217,-71.12,11.29,0.06,0.07,0.02
9414,2139.56,2228.21,2028.35,0.0476,0.0437,1.1973,-0.152,-0.143,-0.071,-2.25,1.91,0.1963,-0.6208,0.7793,0.534,-0.144,-1.618,-11.04,-38.71,0.9690,0.0825,0.2823,-2.152,5.407,-0.469,-71.05,11.35,0.05,0.07,0.02
9434,763.15,1070.18,1093.55,0.0493,0.0439,1.1982,0.031,-0.112,-0.040,-2.25,1.92,0.1958,-0.6243,0.7705,-0.519,0.009,-1.266,-11.05,-38.73,0.9635,0.0697,0.3308,-1.663,5.255,-0.759,-70.94,11.32,0.05,0.08,0.02
9454,521.39,606.01,769.60,0.0457,0.0413,1.1982,-0.014,-0.005,-0.040,-2.25,1.92,0.1926,-0.6199,0.7786,1.832,0.024,-1.892,-11.04,-38.69,0.9626,0.0718,0.3516,-3.175,0.842,-1.491,-70.90,11.27,0.05,0.08,0.03
9475,1384.47,1236.19,1353.85,0.0444,0.0408,1.2026,0.047,0.071,-0.025,-2.25,1.92,0.1960,-0.6211,0.7805,-1.328,-0.067,-1.114,-11.05,-38.71,0.9681,0.0903,0.3154,-4.549,-3.127,-1.110,-70.97,11.27,0.05,0.09,0.03
9495,2669.82,2393.41,2265.27,0.0464,0.0378,1.1985,-0.014,0.025,-0.040,-2.24,1.92,0.1919,-0.6304,0.7671,-0.153,-0.052,-1.511,-11.05,-38.72,0.9761,0.1045,0.2761,-4.686,-2.089,1.318,-71.05,11.37,0.05,0.08,0.03
9515,1965.49,2104.10,1955.02,0.0481,0.0381,1.2007,0.016,0.086,0.127,-2.24,1.92,0.1965,-0.6248,0.7759,1.664,0.039,-1.877,-11.05,-38.69,0.9656,0.0781,0.2715,-3.770,1.743,3.272,-71.07,11.39,0.05,0.08,0.03
9535,659.19,966.23,1000.88,0.0491,0.0398,1.2046,0.031,-0.036,-0.010,-2.25,1.92,0.1902,-0.6218,0.7712,-1.023,-0.022,-1.236,-11.04,-38.72,0.9608,0.0496,0.3018,-2.671,3.132,1.562,-71.03,11.29,0.05,0.08,0.03
9555,563.30,618.90,792.16,0.0483,0.0388,1.2004,-0.030,-0.082,0.127,-2.25,1.91,0.1951,-0.6294,0.7708,0.595,-0.129,-1.709,-11.05,-38.72,0.9578,0.0444,0.3141,-2.793,1.636,-2.209,-71.02,11.17,0.05,0.08,0.03
9575,1581.90,1410.26,1465.86,0.0466,0.0386,1.1960,0.001,-0.005,0.112,-2.25,1.91,0.1929,-0.6262,0.7693,0.214,0.055,-1.114,-11.05,-38.72,0.9690,0.0787,0.2977,-2.854,0.445,-4.392,-71.03,11.19,0.05,0.07,0.02
9595,2704.47,2472.38,2307.99,0.0500,0.0410,1.2007,-0.060,0.086,0.005,-2.25,1.91,0.1938,-0.6228,0.7786,1.481,-0.083,-1.877,-11.05,-38.69,0.9749,0.1089,0.2867,-2.839,1.545,-2.163,-71.03,11.33,0.05,0.07,0.02
9615,1829.30,2003.37,1845.42,0.0464,0.0417,1.1990,0.047,0.071,0.158,-2.25,1.91,0.1943,-0.6201,0.7808,-0.885,-0.006,-1.221,-11.05,-38.70,0.9716,0.1016,0.3033,-2.900,3.194,1.531,-70.99,11.41,0.05,0.08,0.03
9635,585.05,853.41,928.35,0.0505,0.0410,1.1931,-0.060,0.117,0.051,-2.25,1.91,0.1931,-0.6238,0.7725,0.336,-0.037,-1.419,-11.05,-38.70,0.9592,0.0743,0.3270,-3.724,1.942,3.043,-70.94,11.37,0.05,0.08,0.03
9655,627.77,663.22,815.53,0.0491,0.0400,1.1985,0.016,-0.021,0.036,-2.25,1.92,0.1956,-0.6179,0.7786,1.328,0.039,-1.908,-11.05,-38.67,0.9601,0.0558,0.3254,-4.381,-1.646,1.165,-70.98,11.25,0.05,0.08,0.03
9675,1751.14,1551.28,1603.66,0.0486,0.0403,1.1970,0.016,0.056,-0.056,-2.25,1.92,0.1941,-0.6250,0.7732,-1.374,0.146,-1.083,-11.04,-38.70,0.9635,0.0691,0.2883,-4.304,-2.287,-0.942,-71.06,11.21,0.05,0.08,0.03
9696,2733.48,2517.51,2333.77,0.0439,0.0405,1.1931,0.077,-0.005,0.005,-2.25,1.92,0.1875,-0.6233,0.7742,0.260,-0.098,-1.557,-11.04,-38.70,0.9666,0.0802,0.2692,-3.434,0.797,-1.018,-71.10,11.25,0.05,0.07,0.02
9716,1556.92,1768.06,1676.19,0.0498,0.0400,1.2012,0.001,-0.021,-0.071,-2.25,1.92,0.1960,-0.6223,0.7764,0.534,-0.113,-1.495,-11.04,-38.69,0.9678,0.0823,0.2815,-1.999,4.110,-0.667,-71.06,11.31,0.05,0.07,0.02
9736,518.17,763.96,850.18,0.0493,0.0354,1.1948,0.016,-0.036,-0.147,-2.25,1.91,0.1938,-0.6279,0.7712,0.244,-0.006,-1.557,-11.04,-38.69,0.9673,0.0740,0.3182,-2.442,4.354,-0.804,-70.98,11.30,0.05,0.07,0.02
9756,768.79,749.45,915.46,0.0471,0.0376,1.2019,-0.030,0.071,0.082,-2.25,1.91,0.1936,-0.6245,0.7598,-0.519,0.055,-1.114,-11.04,-38.72,0.9634,0.0763,0.3312,-3.281,0.766,-1.369,-70.95,11.27,0.05,0.08,0.03
9776,2019.49,1780.95,1788.21,0.0432,0.0398,1.2004,0.077,0.025,0.127,-2.25,1.91,0.1946,-0.6287,0.7725,1.084,-0.067,-1.694,-11.05,-38.71,0.9738,0.0974,0.3062,-4.136,-1.921,-0.591,-71.01,11.31,0.05,0.08,0.03
9796,2687.55,2536.85,2339.41,0.0471,0.0366,1.1975,0.016,0.040,0.082,-2.25,1.91,0.1938,-0.6218,0.7764,0.748,0.131,-1.633,-11.04,-38.69,0.9768,0.0917,0.2825,-4.335,-0.577,1.760,-71.06,11.36,0.05,0.07,0.02
9816,1430.40,1663.30,1566.59,0.0459,0.0417,1.1953,0.047,0.025,0.021,-2.25,1.91,0.1926,-0.6223,0.7688,-1.038,0.055,-1.083,-11.04,-38.72,0.9646,0.0710,0.2861,-3.541,1.652,2.615,-71.07,11.34,0.05,0.07,0.02
9836,484.32,693.04,820.37,0.0461,0.0400,1.1965,0.016,-0.128,-0.117,-2.25,1.91,0.1965,-0.6208,0.7686,1.176,-0.113,-1.999,-11.05,-38.70,0.9570,0.0537,0.3071,-3.037,2.308,0.814,-71.04,11.25,0.05,0.07,0.02
9856,876.78,830.84,989.60,0.0459,0.0381,1.1978,0.016,-0.112,-0.086,-2.25,1.91,0.1936,-0.6194,0.7759,0.199,0.055,-1.328,-11.05,-38.69,0.9612,0.0559,0.3073,-2.869,1.316,-2.499,-71.03,11.18,0.05,0.07,0.02
9876,2152.45,1891.36,1876.04,0.0454,0.0359,1.2000,0.031,-0.021,0.265,-2.25,1.91,0.1943,-0.6287,0.7737,-0.412,-0.098,-1.419,-11.05,-38.71,0.9690,0.0851,0.3021,-2.778,0.751,-3.553,-71.04,11.22,0.05,0.07,0.02
9896,2613.41,2514.29,2304.76,0.0459,0.0398,1.2026,0.001,-0.158,-0.040,-2.25,1.91,0.1917,-0.6279,0.7700,0.015,-0.006,-1.557,-11.05,-38.72,0.9746,0.1039,0.2925,-2.915,1.697,-1.339,-71.03,11.33,0.05,0.07,0.02
9916,1237.00,1534.36,1457.00,0.0500,0.0415,1.1995,0.031,0.040,-0.117,-2.25,1.91,0.1914,-0.6262,0.7747,0.809,0.039,-1.587,-11.04,-38.71,0.9729,0.0957,0.3076,-3.434,2.201,1.791,-71.00,11.38,0.05,0.07,0.02
9936,456.92,655.97,769.60,0.0464,0.0371,1.1919,-0.060,-0.021,-0.010,-2.25,1.91,0.1868,-0.6248,0.7717,-0.244,0.009,-1.511,-11.03,-38.72,0.9618,0.0726,0.3241,-4.014,0.537,2.524,-70.99,11.32,0.05,0.07,0.02
9956,943.66,867.91,1014.58,0.0452,0.0400,1.2009,0.031,0.086,0.005,-2.25,1.91,0.1917,-0.6282,0.7742,-0.183,0.024,-1.465,-11.03,-38.73,0.9603,0.0609,0.3059,-4.274,-1.493,0.860,-71.04,11.24,0.05,0.07,0.02
9977,2269.30,2001.76,1961.47,0.0444,0.0386,1.1997,0.016,0.101,0.066,-2.24,1.91,0.1934,-0.6252,0.7725,1.588,0.116,-1.770,-11.03,-38.70,0.9695,0.0684,0.2836,-3.923,-0.700,-0.667,-71.10,11.21,0.05,0.06,0.01
9997,2557.00,2505.42,2270.92,0.0464,0.0398,1.1973,0.047,0.040,-0.071,-2.24,1.91,0.1924,-0.6213,0.7690,-0.443,0.100,-1.236,-11.02,-38.72,0.9626,0.0728,0.2782,-2.884,2.201,-1.079,-71.10,11.22,0.05,0.06,0.01
10017,1112.89,1422.34,1366.74,0.0476,0.0417,1.2041,0.001,-0.051,-0.010,-2.24,1.91,0.1958,-0.6274,0.7729,0.031,-0.144,-1.648,-11.03,-38.72,0.9690,0.0765,0.2987,-2.228,4.110,-1.156,-71.04,11.24,0.05,0.06,0.00
10037,471.43,631.79,760.73,0.0452,0.0391,1.1975,0.047,0.117,0.021,-2.24,1.91,0.1921,-0.6262,0.7710,0.504,0.085,-1.465,-11.03,-38.72,0.9644,0.0782,0.3264,-2.671,3.117,-1.507,-70.98,11.23,0.05,0.06,0.01
10057,1058.10,967.03,1100.00,0.0496,0.0430,1.1929,-0.060,-0.005,0.005,-2.24,1.91,0.1938,-0.6182,0.7651,0.504,0.085,-1.557,-11.03,-38.71,0.9602,0.0881,0.3274,-3.526,0.216,-1.232,-70.96,11.24,0.05,0.06,0.01
10077,2388.57,2124.25,2050.11,0.0505,0.0410,1.1978,-0.045,-0.036,0.112,-2.25,1.91,0.1943,-0.6233,0.7751,-0.504,-0.251,-1.389,-11.03,-38.73,0.9680,0.0968,0.3000,-4.182,-1.478,0.570,-71.01,11.29,0.05,0.06,0.01
10097,2427.25,2424.03,2219.34,0.0457,0.0408,1.2026,0.077,-0.036,-0.010,-2.25,1.91,0.1912,-0.6277,0.7771,0.351,0.039,-1.389,-11.03,-38.72,0.9720,0.0869,0.2874,-4.091,-0.348,2.447,-71.06,11.32,0.05,0.06,0.01
10117,1013.77,1316.78,1286.15,0.0461,0.0371,1.1907,0.031,0.056,-0.193,-2.24,1.91,0.1917,-0.6228,0.7673,0.992,0.039,-1.572,-11.03,-38.71,0.9606,0.0630,0.2904,-3.800,1.300,2.386,-71.07,11.26,0.05,0.06,0.00
10137,473.04,607.62,746.23,0.0486,0.0415,1.2002,0.047,-0.112,-0.040,-2.25,1.91,0.1943,-0.6211,0.7654,-0.855,-0.144,-1.328,-11.03,-38.73,0.9564,0.0518,0.2981,-3.083,1.484,-0.255,-71.06,11.17,0.05,0.06,0.00
10157,1134.65,1018.61,1140.29,0.0466,0.0383,1.1948,-0.121,-0.051,-0.056,-2.25,1.91,0.1956,-0.6284,0.7747,0.519,0.024,-1.541,-11.03,-38.73,0.9681,0.0675,0.2994,-2.793,1.697,-3.018,-71.06,11.15,0.05,0.05,-0.00
10177,2461.10,2194.36,2114.58,0.0454,0.0422,1.1978,0.001,0.117,-0.025,-2.24,1.91,0.1914,-0.6233,0.7737,0.718,0.024,-1.419,-11.03,-38.72,0.9662,0.0902,0.3009,-2.671,2.339,-2.988,-71.03,11.21,0.06,0.05,-0.00
10197,2326.52,2363.59,2160.51,0.0454,0.0449,1.1958,-0.060,0.025,0.021,-2.24,1.91,0.1938,-0.6230,0.7793,0.275,-0.129,-1.618,-11.03,-38.71,0.9703,0.1000,0.3076,-2.778,2.323,-0.682,-71.00,11.29,0.06,0.06,0.00
10217,903.37,1195.09,1199.12,0.0459,0.0374,1.2007,0.001,0.071,0.127,-2.24,1.91,0.1982,-0.6277,0.7739,-0.351,0.039,-1.328,-11.03,-38.72,0.9753,0.0916,0.3153,-3.587,1.499,1.837,-70.97,11.32,0.05,0.06,0.01
10237,484.32,605.20,736.56,0.0459,0.0386,1.1948,0.016,0.010,-0.025,-2.24,1.91,0.1926,-0.6191,0.7690,0.565,0.223,-1.328,-11.03,-38.72,0.9589,0.0715,0.3243,-4.381,-0.547,2.218,-70.98,11.25,0.05,0.06,0.01
10257,1276.48,1140.29,1264.40,0.0471,0.0376,1.1936,-0.076,0.040,0.066,-2.24,1.91,0.1948,-0.6184,0.7837,0.534,-0.067,-1.618,-11.03,-38.70,0.9580,0.0662,0.2950,-4.381,-1.890,0.967,-71.05,11.19,0.05,0.06,0.01
10278,2603.74,2324.91,2216.92,0.0500,0.0388,1.1975,-0.030,-0.112,0.051,-2.24,1.91,0.1926,-0.6282,0.7690,-0.656,-0.113,-1.328,-11.03,-38.72,0.9684,0.0691,0.2756,-3.602,-0.028,-0.331,-71.10,11.18,0.05,0.05,0.00
10298,2127.47,2220.15,2051.72,0.0500,0.0388,1.1968,-0.121,-0.051,0.051,-2.25,1.90,0.1929,-0.6248,0.7817,1.053,-0.067,-1.724,-11.03,-38.70,0.9656,0.0710,0.2788,-2.625,3.102,-1.095,-71.09,11.19,0.05,0.05,-0.00
10318,747.84,1054.87,1086.30,0.0488,0.0435,1.1938,0.077,-0.005,-0.102,-2.25,1.91,0.1978,-0.6245,0.7688,0.046,0.055,-1.404,-11.04,-38.70,0.9657,0.0734,0.3074,-2.152,4.155,-1.614,-71.02,11.19,0.05,0.05,-0.00
10338,507.69,604.40,760.73,0.0505,0.0403,1.2039,0.016,-0.021,0.021,-2.25,1.91,0.1921,-0.6257,0.7708,-0.259,-0.113,-1.480,-11.04,-38.72,0.9655,0.0795,0.3223,-2.610,2.262,-1.904,-70.98,11.20,0.06,0.06,0.00
10358,1408.64,1258.75,1343.37,0.0471,0.0359,1.2021,0.062,0.056,0.066,-2.25,1.91,0.1912,-0.6238,0.7712,0.412,0.024,-1.572,-11.03,-38.71,0.9692,0.0945,0.3175,-3.739,-0.196,-0.835,-70.99,11.23,0.06,0.06,0.00
10378,2674.65,2405.49,2268.50,0.0457,0.0388,1.1938,0.001,0.086,0.005,-2.25,1.90,0.1929,-0.6208,0.7622,0.458,-0.022,-1.282,-11.04,-38.71,0.9688,0.0957,0.2986,-4.320,-0.990,1.318,-71.03,11.28,0.06,0.06,0.00
10398,1921.17,2062.20,1938.10,0.0471,0.0396,1.1936,0.001,0.056,0.021,-2.25,1.90,0.1929,-0.6260,0.7720,0.199,-0.067,-1.633,-11.04,-38.72,0.9667,0.0822,0.2904,-4.106,-0.119,2.738,-71.06,11.28,0.06,0.06,0.00
10418,631.79,915.46,967.03,0.0466,0.0432,1.1956,0.047,-0.005,0.112,-2.25,1.91,0.1921,-0.6252,0.7747,-0.153,0.024,-1.343,-11.03,-38.72,0.9655,0.0558,0.2960,-3.816,1.178,2.020,-71.07,11.20,0.06,0.05,-0.00
10438,593.92,643.88,786.52,0.0452,0.0393,1.2024,-0.030,0.040,0.173,-2.25,1.91,0.1929,-0.6260,0.7722,0.947,-0.144,-1.663,-11.03,-38.71,0.9622,0.0493,0.2976,-3.068,1.407,-0.835,-71.07,11.10,0.06,0.05,-0.00
10458,1641.54,1457.00,1533.55,0.0459,0.0366,1.1953,-0.014,-0.036,-0.086,-2.25,1.90,0.1973,-0.6245,0.7783,-0.366,0.039,-1.343,-11.04,-38.72,0.9615,0.0695,0.2948,-2.778,1.728,-3.125,-71.07,11.09,0.06,0.05,-0.01
10478,2720.59,2482.86,2317.66,0.0505,0.0403,1.1992,-0.076,0.025,0.036,-2.25,1.90,0.1951,-0.6270,0.7715,-0.061,-0.006,-1.495,-11.04,-38.73,0.9685,0.0911,0.2968,-2.518,2.354,-3.018,-71.04,11.16,0.06,0.05,-0.01
10499,1732.60,1934.87,1804.32,0.0447,0.0408,1.1995,-0.060,0.056,-0.010,-2.24,1.90,0.1892,-0.6257,0.7771,1.008,-0.052,-1.572,-11.03,-38.71,0.9688,0.1011,0.3049,-2.778,2.491,-0.667,-71.01,11.25,0.06,0.05,-0.00
10519,544.76,809.89,888.86,0.0493,0.0398,1.1951,0.016,0.010,0.082,-2.25,1.90,0.1917,-0.6243,0.7727,0.229,0.009,-1.404,-11.03,-38.71,0.9731,0.0927,0.3209,-3.617,1.407,1.760,-70.98,11.27,0.06,0.05,-0.00
10539,683.37,698.68,861.47,0.0452,0.0398,1.1963,-0.076,0.101,-0.147,-2.24,1.90,0.1943,-0.6216,0.7754,0.137,-0.022,-1.526,-11.03,-38.71,0.9639,0.0752,0.3206,-4.213,-0.822,2.264,-71.00,11.23,0.06,0.06,0.00
10559,1897.80,1667.33,1686.67,0.0481,0.0405,1.1982,0.062,-0.036,0.005,-2.25,1.90,0.1914,-0.6250,0.7776,0.107,-0.022,-1.450,-11.03,-38.71,0.9631,0.0635,0.2988,-4.335,-1.753,1.089,-71.06,11.16,0.06,0.05,-0.00
10579,2716.56,2540.07,2332.97,0.0488,0.0408,1.1965,-0.014,-0.036,-0.025,-2.25,1.90,0.1963,-0.6201,0.7769,0.672,-0.037,-1.633,-11.03,-38.69,0.9614,0.0671,0.2777,-3.602,0.064,-0.377,-71.11,11.14,0.06,0.05,-0.01
10599,1503.74,1740.66,1648.79,0.0491,0.0393,1.2014,-0.014,-0.158,0.036,-2.25,1.90,0.1914,-0.6240,0.7744,-0.412,-0.129,-1.358,-11.03,-38.70,0.9688,0.0702,0.2831,-2.594,2.842,-1.324,-71.10,11.14,0.06,0.04,-0.01
10619,491.58,727.69,807.47,0.0483,0.0388,1.1975,0.092,0.086,-0.147,-2.25,1.90,0.1919,-0.6265,0.7717,0.229,-0.037,-1.541,-11.03,-38.71,0.9662,0.0758,0.3040,-2.258,3.972,-1.629,-71.04,11.15,0.06,0.05,-0.01
10639,822.78,783.30,946.89,0.0518,0.0403,1.1980,-0.030,0.025,0.127,-2.26,1.90,0.1926,-0.6284,0.7698,0.534,0.055,-1.495,-11.03,-38.71,0.9652,0.0841,0.3218,-2.869,2.293,-1.568,-70.99,11.17,0.06,0.05,-0.01
10659,2126.67,1865.57,1846.23,0.0479,0.0403,1.1978,0.031,-0.021,0.204,-2.26,1.90,0.1919,-0.6230,0.7710,-0.259,-0.067,-1.312,-11.03,-38.72,0.9686,0.0950,0.3164,-3.694,-0.348,-0.423,-71.00,11.21,0.06,0.05,-0.01
10679,2663.37,2539.27,2320.07,0.0488,0.0403,1.1953,-0.106,0.101,-0.025,-2.26,1.90,0.1963,-0.6228,0.7773,0.199,-0.052,-1.557,-11.03,-38.71,0.9646,0.0913,0.2987,-4.274,-1.020,1.272,-71.04,11.24,0.06,0.05,-0.01
10699,1326.45,1578.68,1494.07,0.0437,0.0415,1.1978,-0.091,0.040,-0.025,-2.25,1.90,0.1943,-0.6248,0.7776,0.641,-0.006,-1.602,-11.03,-38.70,0.9681,0.0802,0.2883,-4.106,0.201,2.142,-71.07,11.24,0.06,0.05,-0.01
10720,469.82,683.37,802.64,0.0496,0.0403,1.1946,0.016,-0.051,0.158,-2.26,1.90,0.1929,-0.6218,0.7742,0.458,0.009,-1.602,-11.03,-38.69,0.9607,0.0594,0.2930,-3.419,1.514,1.211,-71.08,11.18,0.06,0.05,-0.01
10740,904.98,836.48,995.24,0.0505,0.0427,1.1931,-0.106,-0.082,0.066,-2.26,1.90,0.1963,-0.6277,0.7759,-0.321,0.055,-1.389,-11.03,-38.70,0.9615,0.0573,0.3043,-2.915,1.911,-1.140,-71.06,11.11,0.06,0.05,-0.01
10760,2234.65,1968.72,1926.81,0.0439,0.0422,1.1995,0.016,-0.021,-0.010,-2.26,1.91,0.1958,-0.6257,0.7742,0.473,0.024,-1.557,-11.03,-38.70,0.9646,0.0763,0.3102,-2.778,1.743,-2.759,-71.04,11.11,0.06,0.05,-0.01
10780,2571.50,2502.20,2304.76,0.0471,0.0427,1.2026,0.001,-0.036,-0.147,-2.26,1.91,0.1941,-0.6245,0.7734,0.397,0.009,-1.602,-11.03,-38.70,0.9698,0.0941,0.3033,-2.961,1.728,-2.102,-71.02,11.18,0.06,0.05,-0.01
10800,1209.60,1482.78,1433.63,0.0464,0.0369,1.1951,-0.030,0.056,-0.025,-2.26,1.91,0.1921,-0.6230,0.7700,-0.336,-0.083,-1.328,-11.03,-38.71,0.9681,0.0980,0.3059,-3.388,1.667,0.203,-71.00,11.24,0.06,0.05,-0.01
10820,469.82,645.49,762.34,0.0469,0.0364,1.1995,-0.030,0.025,0.021,-2.26,1.90,0.1895,-0.6245,0.7727,0.412,0.070,-1.450,-11.03,-38.71,0.9656,0.0862,0.3135,-3.724,0.629,2.035,-71.00,11.25,0.06,0.06,-0.01
10840,1000.07,917.07,1045.20,0.0508,0.0378,1.1963,-0.014,0.071,0.066,-2.26,1.90,0.1951,-0.6289,0.7700,0.473,-0.083,-1.618,-11.03,-38.71,0.9657,0.0686,0.3094,-4.197,-0.608,1.822,-71.03,11.19,0.06,0.06,-0.01
10860,2323.30,2050.11,1987.25,0.0474,0.0344,1.1973,0.031,0.071,0.036,-2.26,1.90,0.1948,-0.6221,0.7742,0.122,-0.022,-1.419,-11.03,-38.71,0.9609,0.0615,0.2959,-4.060,-0.608,0.371,-71.07,11.13,0.06,0.06,-0.01
10880,2496.56,2463.52,2251.58,0.0464,0.0386,1.1919,-0.076,0.040,0.097,-2.26,1.89,0.1914,-0.6277,0.7664,-0.153,-0.052,-1.450,-11.03,-38.72,0.9634,0.0688,0.2819,-3.205,1.041,-1.217,-71.09,11.11,0.06,0.05,-0.01
10900,1058.10,1354.65,1329.67,0.0491,0.0435,1.2031,0.077,-0.143,0.219,-2.26,1.90,0.1924,-0.6238,0.7708,0.794,-0.006,-1.755,-11.03,-38.71,0.9661,0.0768,0.2937,-2.549,3.209,-1.812,-71.06,11.13,0.06,0.05,-0.01
10920,464.18,622.93,767.18,0.0457,0.0405,1.1965,0.062,-0.067,-0.086,-2.26,1.90,0.1975,-0.6228,0.7749,0.107,0.070,-1.343,-11.03,-38.71,0.9674,0.0836,0.3127,-2.426,3.606,-1.507,-70.99,11.16,0.06,0.05,-0.01
10940,1108.06,992.01,1135.46,0.0471,0.0403,1.1985,-0.014,0.056,0.051,-2.26,1.90,0.1941,-0.6245,0.7742,0.061,-0.022,-1.541,-11.03,-38.71,0.9657,0.0867,0.3241,-2.976,1.606,-0.560,-70.96,11.18,0.06,0.06,-0.00
10960,2435.31,2161.32,2092.82,0.0486,0.0393,1.2007,0.001,0.086,0.112,-2.26,1.90,0.1936,-0.6204,0.7769,0.412,0.085,-1.557,-11.03,-38.70,0.9656,0.0880,0.3158,-4.029,-0.684,0.661,-70.98,11.19,0.06,0.06,-0.00
10980,2338.61,2364.40,2179.05,0.0488,0.0391,1.2000,-0.076,-0.036,-0.040,-2.26,1.90,0.1946,-0.6284,0.7725,0.061,-0.052,-1.450,-11.03,-38.71,0.9679,0.0812,0.2974,-4.365,-1.356,1.593,-71.03,11.19,0.07,0.06,-0.00
11000,905.79,1203.96,1203.15,0.0474,0.0393,1.2002,0.016,0.086,0.051,-2.26,1.90,0.1931,-0.6233,0.7783,0.031,0.039,-1.495,-11.03,-38.71,0.9640,0.0677,0.2865,-3.968,0.186,1.593,-71.07,11.15,0.07,0.06,-0.00
11021,502.86,595.53,749.45,0.0464,0.0442,1.2039,0.031,0.117,0.082,-2.25,1.90,0.1941,-0.6265,0.7656,0.214,-0.006,-1.495,-11.03,-38.72,0.9608,0.0615,0.2896,-3.190,1.987,0.112,-71.07,11.10,0.07,0.06,-0.01
11041,1258.75,1102.42,1222.49,0.0454,0.0403,1.2012,0.077,0.056,0.066,-2.25,1.90,0.1958,-0.6257,0.7739,0.702,-0.098,-1.602,-11.04,-38.71,0.9667,0.0625,0.2979,-2.594,2.583,-1.782,-71.04,11.07,0.06,0.06,-0.01
11061,2587.62,2293.48,2184.69,0.0515,0.0408,1.1985,-0.030,0.162,0.021,-2.25,1.91,0.1919,-0.6248,0.7725,-0.275,-0.006,-1.358,-11.03,-38.72,0.9625,0.0786,0.3057,-2.533,2.232,-2.545,-71.02,11.09,0.06,0.06,-0.00
11081,2178.24,2254.80,2087.18,0.0422,0.0417,1.1946,-0.060,-0.082,0.036,-2.25,1.91,0.1982,-0.6245,0.7744,0.657,0.055,-1.587,-11.04,-38.71,0.9734,0.0914,0.3123,-2.991,1.346,-1.247,-71.00,11.13,0.06,0.06,-0.00
11101,781.68,1095.97,1108.06,0.0464,0.0396,1.1987,0.001,0.010,-0.147,-2.25,1.91,0.1931,-0.6252,0.7695,0.183,0.039,-1.434,-11.04,-38.71,0.9679,0.0950,0.3134,-3.663,0.674,0.753,-70.99,11.17,0.06,0.06,0.00
11121,519.78,605.20,772.01,0.0466,0.0405,1.2004,0.062,-0.128,0.051,-2.25,1.91,0.1948,-0.6248,0.7666,0.061,-0.083,-1.541,-11.04,-38.72,0.9698,0.0833,0.3053,-4.213,-0.058,1.928,-71.01,11.17,0.06,0.06,0.00
11141,1392.53,1237.00,1351.43,0.0493,0.0417,1.2029,0.016,0.101,0.143,-2.25,1.91,0.1917,-0.6221,0.7708,0.412,-0.037,-1.511,-11.04,-38.72,0.9633,0.0669,0.2987,-3.953,-0.089,1.455,-71.04,11.12,0.06,0.06,0.00
11161,2673.85,2411.14,2254.80,0.0503,0.0410,1.1995,0.047,-0.005,-0.010,-2.25,1.91,0.1934,-0.6213,0.7725,0.244,0.085,-1.434,-11.04,-38.71,0.9629,0.0635,0.2986,-3.617,0.476,-0.240,-71.06,11.07,0.06,0.06,0.00
11181,1989.67,2125.86,1956.63,0.0508,0.0400,1.2026,-0.030,-0.051,-0.040,-2.26,1.91,0.1965,-0.6240,0.7825,0.214,-0.037,-1.511,-11.04,-38.71,0.9618,0.0728,0.2983,-2.762,1.789,-1.354,-71.05,11.07,0.06,0.06,-0.00
11201,643.88,946.89,990.40,0.0447,0.0383,1.1970,0.077,0.040,-0.010,-2.25,1.91,0.1902,-0.6218,0.7632,-0.336,-0.037,-1.328,-11.04,-38.72,0.9668,0.0804,0.2996,-2.854,2.201,-1.598,-71.03,11.09,0.06,0.06,-0.00
11221,569.74,611.65,788.94,0.0454,0.0391,1.1973,0.031,-0.082,-0.025,-2.25,1.91,0.1924,-0.6267,0.7727,0.702,-0.052,-1.679,-11.04,-38.71,0.9712,0.0867,0.3130,-3.052,2.094,-0.606,-71.00,11.12,0.06,0.06,0.00
11241,1573.85,1377.22,1480.37,0.0488,0.0403,1.2004,-0.014,0.040,0.127,-2.26,1.91,0.1931,-0.6255,0.7805,0.153,0.100,-1.450,-11.03,-38.71,0.9677,0.0857,0.3129,-3.556,0.751,0.341,-70.99,11.13,0.06,0.07,0.00
11261,2711.72,2466.74,2313.63,0.0510,0.0398,1.1943,0.001,0.040,0.204,-2.26,1.91,0.1895,-0.6252,0.7788,0.046,-0.022,-1.450,-11.03,-38.71,0.9707,0.0809,0.3035,-4.106,-0.196,0.890,-71.02,11.13,0.06,0.07,0.01
11282,1827.69,1991.28,1867.18,0.0452,0.0376,1.1978,-0.060,0.056,0.036,-2.26,1.91,0.1921,-0.6252,0.7761,0.534,0.039,-1.679,-11.03,-38.70,0.9691,0.0698,0.3005,-3.633,0.125,0.676,-71.04,11.10,0.06,0.07,0.00
11302,598.75,886.45,953.33,0.0471,0.0405,1.1978,-0.014,0.132,-0.071,-2.25,1.91,0.1934,-0.6213,0.7632,-0.107,0.024,-1.251,-11.03,-38.72,0.9596,0.0679,0.2869,-3.190,1.178,-0.041,-71.06,11.08,0.06,0.06,0.00
11322,624.54,655.16,806.67,0.0498,0.0408,1.1985,0.138,-0.021,-0.086,-2.26,1.91,0.1951,-0.6226,0.7700,0.382,-0.037,-1.648,-11.03,-38.71,0.9640,0.0712,0.2990,-2.793,2.125,-0.927,-71.04,11.07,0.06,0.06,-0.00
11342,1710.84,1507.77,1564.18,0.0486,0.0403,1.2019,0.001,-0.067,-0.117,-2.26,1.91,0.1917,-0.6240,0.7695,0.092,-0.037,-1.358,-11.03,-38.72,0.9669,0.0786,0.3053,-2.732,2.293,-1.491,-71.01,11.08,0.06,0.06,0.00
11362,2726.23,2512.67,2326.52,0.0449,0.0378,1.1968,0.077,0.010,0.158,-2.26,1.91,0.1912,-0.6230,0.7693,0.534,0.100,-1.587,-11.03,-38.71,0.9648,0.0842,0.3126,-3.007,1.575,-0.804,-70.99,11.10,0.06,0.07,0.00
11382,1706.01,1895.38,1789.82,0.0452,0.0430,1.1956,0.077,0.025,0.082,-2.25,1.91,0.1956,-0.6245,0.7776,0.031,0.085,-1.526,-11.02,-38.71,0.9683,0.0853,0.3083,-3.434,0.537,0.264,-70.99,11.12,0.07,0.07,0.00
11402,553.63,805.05,868.72,0.0505,0.0400,1.2065,0.001,0.071,0.005,-2.25,1.91,0.1943,-0.6265,0.7634,-0.137,0.009,-1.404,-11.03,-38.73,0.9644,0.0830,0.3020,-3.968,-0.043,1.058,-71.02,11.13,0.07,0.07,0.00
11422,671.28,698.68,843.74,0.0483,0.0383,1.1992,-0.045,-0.051,0.021,-2.26,1.91,0.1936,-0.6255,0.7698,0.718,-0.037,-1.633,-11.03,-38.72,0.9656,0.0720,0.2953,-3.984,0.140,1.150,-71.04,11.10,0.07,0.07,0.00
11442,1877.66,1661.69,1709.23,0.0488,0.0378,1.1990,-0.091,0.040,0.112,-2.26,1.91,0.1904,-0.6221,0.7781,0.076,0.039,-1.480,-11.02,-38.72,0.9644,0.0680,0.2930,-3.266,0.934,0.264,-71.06,11.08,0.07,0.07,0.00
11462,2724.62,2525.57,2341.83,0.0437,0.0383,1.1990,0.062,-0.005,0.021,-2.25,1.91,0.1965,-0.6257,0.7700,0.366,-0.067,-1.419,-11.03,-38.72,0.9661,0.0696,0.2936,-2.839,1.865,-0.789,-71.05,11.07,0.07,0.07,-0.00
11482,1569.82,1792.23,1689.89,0.0474,0.0393,1.1902,-0.060,0.010,0.021,-2.25,1.91,0.1951,-0.6218,0.7727,0.153,-0.052,-1.511,-11.03,-38.72,0.9675,0.0732,0.3060,-2.655,2.110,-1.308,-71.03,11.06,0.07,0.07,-0.00
11502,518.97,740.59,838.10,0.0479,0.0396,1.2048,0.031,0.040,-0.102,-2.25,1.91,0.1941,-0.6233,0.7756,0.489,-0.098,-1.648,-11.03,-38.71,0.9652,0.0830,0.3081,-2.808,1.881,-1.232,-71.01,11.09,0.07,0.07,0.00
11522,759.12,722.86,897.73,0.0483,0.0378,1.1980,-0.060,-0.082,-0.056,-2.26,1.90,0.1953,-0.6194,0.7754,-0.183,-0.067,-1.389,-11.04,-38.71,0.9705,0.0884,0.3107,-3.281,1.102,-0.575,-71.00,11.12,0.07,0.07,0.00
11542,1985.64,1729.38,1755.97,0.0540,0.0422,1.1992,0.016,-0.036,-0.056,-2.26,1.91,0.1934,-0.6240,0.7661,0.107,-0.006,-1.633,-11.04,-38.72,0.9689,0.0869,0.3073,-3.480,0.461,0.509,-71.00,11.14,0.07,0.07,0.00
11562,2715.75,2540.07,2361.98,0.0479,0.0405,1.1990,0.047,0.117,-0.147,-2.26,1.91,0.1921,-0.6230,0.7786,0.580,0.116,-1.526,-11.03,-38.71,0.9659,0.0773,0.2991,-3.877,0.125,1.257,-71.03,11.14,0.07,0.07,0.00
11583,1365.13,1610.92,1555.31,0.0464,0.0442,1.1956,0.016,0.101,0.127,-2.26,1.91,0.1897,-0.6228,0.7688,-0.137,0.039,-1.343,-11.03,-38.72,0.9684,0.0703,0.2977,-3.678,0.232,0.921,-71.05,11.11,0.07,0.07,0.00
11603,492.38,701.90,821.98,0.0459,0.0339,1.2004,0.047,0.101,0.066,-2.26,1.91,0.1941,-0.6204,0.7729,0.260,-0.022,-1.465,-11.03,-38.71,0.9634,0.0652,0.2938,-3.510,0.797,-0.087,-71.07,11.06,0.07,0.07,-0.00
11623,859.85,812.31,972.67,0.0481,0.0396,1.1992,-0.045,0.010,-0.056,-2.26,1.91,0.1902,-0.6267,0.7769,0.351,-0.052,-1.618,-11.03,-38.71,0.9658,0.0706,0.2938,-2.869,1.621,-1.339,-71.07,11.06,0.07,0.06,-0.00
11643,2190.33,1912.31,1916.34,0.0454,0.0366,1.1982,-0.030,-0.067,0.127,-2.26,1.90,0.1948,-0.6216,0.7737,0.351,0.039,-1.480,-11.03,-38.70,0.9695,0.0797,0.2986,-2.823,2.308,-1.491,-71.04,11.08,0.07,0.06,-0.00
11663,2619.85,2536.04,2320.88,0.0479,0.0437,1.1987,0.047,0.071,0.143,-2.26,1.91,0.1929,-0.6245,0.7717,0.061,-0.037,-1.404,-11.03,-38.71,0.9637,0.0841,0.3066,-2.854,2.216,-0.667,-71.02,11.11,0.07,0.06,-0.00
