timestamp_ms,EMG_Quad_mV,EMG_Ham_mV,EMG_Calf_mV,ACC_Quad_X_g,ACC_Quad_Y_g,ACC_Quad_Z_g,GYR_Quad_X_dps,GYR_Quad_Y_dps,GYR_Quad_Z_dps,Pitch_Quad_deg,Roll_Quad_deg,ACC_Ham_X_g,ACC_Ham_Y_g,ACC_Ham_Z_g,GYR_Ham_X_dps,GYR_Ham_Y_dps,GYR_Ham_Z_dps,Pitch_Ham_deg,Roll_Ham_deg,ACC_Calf_X_g,ACC_Calf_Y_g,ACC_Calf_Z_g,GYR_Calf_X_dps,GYR_Calf_Y_dps,GYR_Calf_Z_dps,Pitch_Calf_deg,Roll_Calf_deg,Angle_Quad_Ham_deg,Angle_Quad_Calf_deg,Angle_Ham_Calf_deg
10,1432.01,1431.21,1422.34,0.0671,0.0493,1.2476,-2.804,0.167,-0.178,-2.90,1.80,0.1868,-0.5962,0.8474,2.220,-1.566,-2.120,-11.46,-34.63,0.8494,0.1981,0.5042,2.175,-3.338,0.647,-55.32,23.53,0.00,-0.14,-0.15
24,1430.40,1407.84,1427.18,0.0728,0.0549,1.1895,3.899,-0.352,0.249,-2.91,1.88,0.2231,-0.5627,0.8372,-2.253,-1.093,1.437,-11.49,-34.65,0.8390,0.1871,0.4863,-3.688,3.716,0.800,-55.32,23.43,0.01,-0.27,-0.28
39,1438.46,1434.43,1436.04,0.0564,0.0271,1.2012,-1.140,0.793,0.066,-2.90,1.85,0.1865,-0.5784,0.7932,-5.581,4.999,2.735,-11.41,-34.76,0.7919,0.2217,0.5167,3.411,2.983,-5.750,-55.27,23.47,0.01,-0.39,-0.40
63,1466.67,1507.77,1454.58,0.0515,0.0408,1.1987,0.876,-0.840,-0.270,-2.91,1.87,0.2017,-0.5532,0.8252,9.732,-1.917,-3.616,-11.45,-34.51,0.8004,0.2233,0.5115,1.656,2.388,-2.513,-55.21,23.51,0.02,-0.50,-0.51
78,1427.99,1449.74,1462.64,0.0471,0.0430,1.1946,-0.208,-0.199,0.005,-2.90,1.87,0.1882,-0.5515,0.8567,0.602,1.259,0.063,-11.42,-34.46,0.8424,0.2407,0.5431,-2.482,2.128,-4.330,-55.17,23.49,0.02,-0.59,-0.62
92,1439.27,1432.01,1431.21,0.0586,0.0339,1.2180,-0.254,-0.000,-0.239,-2.90,1.86,0.2000,-0.5818,0.8145,-8.650,-1.260,0.399,-11.43,-34.61,0.8787,0.2324,0.5157,1.762,0.983,-0.391,-55.19,23.53,0.03,-0.68,-0.71
117,1473.11,1524.69,1478.75,0.0698,0.0374,1.1909,-1.079,0.167,-0.025,-2.90,1.84,0.2024,-0.5676,0.7966,2.281,0.297,-1.097,-11.43,-34.57,0.8275,0.2458,0.5358,0.190,-1.124,-1.964,-55.21,23.55,0.03,-0.77,-0.80
131,1457.00,1534.36,1498.10,0.0647,0.0376,1.2063,-0.025,-0.428,-0.224,-2.91,1.83,0.2217,-0.5759,0.8267,6.388,-1.886,-2.181,-11.48,-34.49,0.8430,0.2467,0.5262,-0.283,-0.544,-0.971,-55.22,23.58,0.03,-0.85,-0.88
156,1440.88,1427.99,1444.10,0.0598,0.0408,1.1924,-0.010,0.290,-0.056,-2.90,1.84,0.1946,-0.5576,0.8228,-2.192,3.106,1.102,-11.39,-34.53,0.8668,0.2515,0.5190,-0.512,1.166,-0.422,-55.21,23.61,0.04,-0.92,-0.96
170,1444.10,1476.34,1480.37,0.0620,0.0327,1.2058,-0.422,0.091,-0.285,-2.90,1.82,0.1865,-0.5676,0.8042,-4.192,-2.711,0.659,-11.42,-34.60,0.8136,0.2510,0.5436,0.892,1.243,1.777,-55.17,23.65,0.05,-0.99,-1.03
185,1477.14,1526.30,1508.57,0.0544,0.0405,1.1985,0.128,0.030,0.188,-2.90,1.83,0.2058,-0.5764,0.8130,-0.559,-0.558,-1.082,-11.43,-34.63,0.8239,0.2361,0.5303,-1.001,-1.597,3.212,-55.18,23.64,0.05,-1.05,-1.10
209,1426.37,1432.01,1419.12,0.0593,0.0303,1.2061,-0.559,-0.077,-0.071,-2.90,1.81,0.2051,-0.5735,0.8188,1.411,-1.062,-1.280,-11.46,-34.60,0.8162,0.2205,0.5264,-2.314,-1.826,3.685,-55.22,23.57,0.05,-1.11,-1.16
224,1405.42,1388.50,1407.84,0.0654,0.0359,1.2046,0.112,0.091,0.036,-2.90,1.81,0.2095,-0.5632,0.8262,1.838,0.190,-0.517,-11.46,-34.57,0.8555,0.2046,0.5055,1.091,-2.452,1.945,-55.30,23.55,0.05,-1.17,-1.22
238,1428.79,1446.52,1456.19,0.0659,0.0342,1.1946,0.005,0.061,-0.010,-2.90,1.80,0.2031,-0.5671,0.8201,-2.391,1.304,0.567,-11.45,-34.60,0.8066,0.2131,0.5081,-0.894,0.204,0.174,-55.31,23.52,0.05,-1.23,-1.28
263,1444.10,1495.68,1459.41,0.0608,0.0374,1.1956,0.051,0.091,0.081,-2.90,1.80,0.2122,-0.5811,0.8076,1.304,-0.864,-1.021,-11.48,-34.59,0.8685,0.2153,0.5002,-0.390,1.930,-2.590,-55.31,23.51,0.05,-1.29,-1.34
277,1436.04,1459.41,1457.00,0.0579,0.0430,1.2000,0.311,0.106,0.143,-2.90,1.81,0.1975,-0.5593,0.8293,4.281,2.098,-0.227,-11.44,-34.52,0.8074,0.2290,0.5095,1.396,3.059,-2.651,-55.27,23.54,0.05,-1.33,-1.39
292,1419.12,1423.15,1436.04,0.0562,0.0398,1.1965,-0.147,0.335,0.097,-2.89,1.81,0.1978,-0.5608,0.8220,0.953,0.526,-0.288,-11.43,-34.50,0.8445,0.2335,0.5188,1.671,3.533,-3.460,-55.24,23.58,0.05,-1.38,-1.43
316,1445.71,1508.57,1477.95,0.0615,0.0459,1.1912,0.189,0.015,0.005,-2.89,1.83,0.1951,-0.5576,0.8208,0.800,0.190,-1.265,-11.42,-34.48,0.8070,0.2343,0.5497,0.251,1.640,-1.262,-55.16,23.58,0.06,-1.41,-1.47
331,1444.91,1508.57,1457.80,0.0635,0.0405,1.1946,0.082,0.045,-0.071,-2.89,1.83,0.2073,-0.5620,0.8276,-3.520,-2.925,0.628,-11.47,-34.52,0.8535,0.2349,0.5479,-0.070,-0.437,-0.880,-55.17,23.57,0.05,-1.44,-1.50
345,1421.54,1477.14,1429.60,0.0625,0.0383,1.2085,-0.361,0.274,-0.071,-2.89,1.82,0.2195,-0.5774,0.8162,-2.620,0.740,0.186,-11.48,-34.57,0.8202,0.2394,0.5448,-0.848,-0.651,-0.742,-55.15,23.56,0.05,-1.47,-1.53
370,1434.43,1495.68,1465.05,0.0649,0.0347,1.1885,0.143,0.473,-0.025,-2.88,1.82,0.2058,-0.5632,0.8152,3.503,-0.070,-1.417,-11.48,-34.49,0.8516,0.2466,0.5195,-1.031,-1.429,0.372,-55.20,23.57,0.05,-1.50,-1.55
384,1482.78,1528.72,1502.93,0.0703,0.0281,1.1963,0.341,0.488,0.066,-2.88,1.82,0.2151,-0.5735,0.8242,-0.681,-0.054,1.132,-11.50,-34.51,0.8191,0.2493,0.5101,-1.734,-1.231,0.616,-55.22,23.60,0.05,-1.53,-1.58
399,1470.70,1547.25,1498.10,0.0552,0.0264,1.1909,-0.285,0.900,0.326,-2.87,1.80,0.1860,-0.5684,0.7927,-3.505,2.495,0.842,-11.45,-34.58,0.8447,0.2551,0.5103,-0.161,-1.429,0.662,-55.26,23.65,0.05,-1.56,-1.61
423,1409.45,1398.17,1431.21,0.0466,0.0400,1.1985,0.525,-0.199,0.081,-2.86,1.82,0.1980,-0.5757,0.8157,4.403,-1.245,-2.120,-11.47,-34.49,0.8270,0.2372,0.4994,-0.146,-0.712,6.174,-55.29,23.68,0.04,-1.60,-1.64
438,1449.74,1432.01,1431.21,0.0496,0.0364,1.1897,-0.040,0.091,0.066,-2.85,1.82,0.1863,-0.5630,0.8347,3.838,2.236,-0.608,-11.42,-34.42,0.8461,0.2084,0.5198,-2.711,1.349,6.800,-55.30,23.61,0.04,-1.63,-1.67
452,1486.01,1487.62,1494.87,0.0620,0.0378,1.2007,-0.300,0.030,-0.224,-2.85,1.81,0.1968,-0.5635,0.8157,-1.612,-0.925,-0.334,-11.43,-34.45,0.8185,0.1906,0.5310,0.068,0.250,4.540,-55.30,23.53,0.04,-1.66,-1.70
477,1427.99,1426.37,1418.32,0.0720,0.0476,1.1919,-0.056,0.061,0.204,-2.86,1.82,0.2080,-0.5603,0.8176,-1.429,-0.329,-0.043,-11.45,-34.48,0.8175,0.1797,0.5251,-0.100,-0.574,-2.651,-55.32,23.44,0.04,-1.69,-1.73
491,1419.12,1372.38,1417.51,0.0703,0.0505,1.1956,-0.071,-0.107,0.066,-2.87,1.83,0.2161,-0.5708,0.8225,-0.635,-1.322,-0.028,-11.48,-34.50,0.8212,0.2042,0.5153,0.373,-0.528,-6.605,-55.34,23.41,0.04,-1.71,-1.75
516,1491.65,1548.06,1560.95,0.0530,0.0425,1.2026,-0.498,0.305,-0.025,-2.86,1.82,0.1973,-0.5542,0.8259,4.403,3.167,-0.288,-11.40,-34.38,0.8274,0.2432,0.5049,1.824,4.266,-8.010,-55.25,23.50,0.04,-1.73,-1.78
530,1462.64,1540.81,1483.59,0.0540,0.0457,1.1912,-0.071,0.015,-0.148,-2.85,1.83,0.1836,-0.5515,0.8252,0.525,-0.054,-0.272,-11.38,-34.36,0.8342,0.2592,0.5281,2.694,4.464,-5.567,-55.18,23.59,0.05,-1.74,-1.79
545,1438.46,1456.19,1439.27,0.0515,0.0369,1.1953,0.128,0.091,0.081,-2.84,1.83,0.1956,-0.5657,0.8164,-3.627,-1.093,0.384,-11.39,-34.42,0.8386,0.2646,0.5442,0.083,3.533,-1.643,-55.11,23.64,0.05,-1.75,-1.80
569,1444.91,1495.68,1477.14,0.0601,0.0264,1.1987,-0.254,-0.184,-0.025,-2.85,1.81,0.1982,-0.5791,0.8081,-2.238,-2.482,-0.761,-11.45,-34.50,0.8379,0.2478,0.5537,-2.390,-1.826,2.876,-55.13,23.59,0.05,-1.76,-1.81
584,1497.29,1598.02,1523.88,0.0686,0.0342,1.1963,0.204,0.030,0.143,-2.86,1.81,0.2117,-0.5798,0.8137,0.327,-0.986,-0.379,-11.47,-34.51,0.8402,0.2430,0.5322,-1.413,-3.444,2.525,-55.18,23.59,0.04,-1.77,-1.82
608,1390.92,1354.65,1365.13,0.0669,0.0332,1.2024,-0.071,0.137,-0.071,-2.86,1.81,0.1987,-0.5686,0.8098,2.342,0.709,-0.059,-11.45,-34.47,0.8337,0.2413,0.5077,-0.436,-3.796,2.372,-55.29,23.61,0.04,-1.79,-1.83
623,1425.57,1363.52,1365.93,0.0598,0.0337,1.1978,0.036,0.045,0.020,-2.86,1.80,0.2000,-0.5691,0.8289,1.335,-1.077,-0.837,-11.46,-34.45,0.8352,0.2366,0.4916,-1.902,-1.475,3.135,-55.34,23.63,0.04,-1.81,-1.85
637,1431.21,1419.12,1431.21,0.0552,0.0398,1.1914,0.067,0.045,-0.025,-2.85,1.81,0.1958,-0.5620,0.8206,-0.772,0.785,0.369,-11.45,-34.46,0.8344,0.2238,0.4930,-0.131,1.197,3.166,-55.36,23.64,0.04,-1.83,-1.87
662,1452.97,1469.08,1429.60,0.0547,0.0447,1.1917,0.311,-0.077,0.020,-2.85,1.82,0.1960,-0.5647,0.8201,1.060,-0.909,-0.578,-11.46,-34.43,0.8248,0.2050,0.5295,1.656,3.014,2.311,-55.29,23.63,0.04,-1.84,-1.88
676,1392.53,1339.34,1390.11,0.0559,0.0430,1.1968,-0.315,-0.107,0.005,-2.85,1.82,0.2000,-0.5552,0.8291,3.625,1.106,-1.204,-11.44,-34.37,0.8148,0.1941,0.5490,0.449,2.342,0.677,-55.24,23.56,0.04,-1.85,-1.89
691,1419.12,1328.06,1358.68,0.0645,0.0449,1.1953,-0.040,-0.184,-0.056,-2.86,1.83,0.2080,-0.5620,0.8315,-0.284,-0.619,-0.303,-11.46,-34.37,0.8174,0.1942,0.5492,-0.726,0.098,-1.781,-55.22,23.46,0.04,-1.86,-1.90
715,1475.53,1610.92,1572.23,0.0640,0.0381,1.1997,0.005,0.183,0.066,-2.86,1.83,0.2095,-0.5679,0.8098,-2.665,0.114,0.552,-11.47,-34.45,0.8312,0.2198,0.5262,0.862,-1.276,-6.742,-55.26,23.47,0.03,-1.87,-1.91
730,1454.58,1540.00,1502.93,0.0615,0.0388,1.1960,-0.040,0.167,0.066,-2.86,1.83,0.2007,-0.5723,0.8147,-0.635,-0.436,-0.120,-11.47,-34.47,0.8280,0.2489,0.5045,1.075,-0.528,-6.926,-55.28,23.54,0.03,-1.88,-1.91
744,1435.24,1417.51,1399.78,0.0576,0.0356,1.1992,-0.101,0.015,0.005,-2.85,1.82,0.2004,-0.5693,0.8076,1.823,0.236,-0.242,-11.47,-34.46,0.8422,0.2675,0.5010,-0.070,1.273,-4.300,-55.27,23.63,0.03,-1.89,-1.92
769,1480.37,1546.45,1512.60,0.0566,0.0330,1.1965,-0.056,-0.062,0.066,-2.85,1.82,0.1912,-0.5642,0.8218,1.060,-0.009,-0.563,-11.45,-34.43,0.8430,0.2648,0.5243,0.053,3.349,1.212,-55.19,23.69,0.03,-1.89,-1.92
783,1500.51,1613.33,1551.28,0.0542,0.0310,1.1992,-0.056,-0.077,-0.010,-2.85,1.81,0.2029,-0.5696,0.8220,-2.940,-1.810,0.018,-11.48,-34.48,0.8384,0.2465,0.5444,-0.696,2.052,3.563,-55.15,23.70,0.03,-1.89,-1.92
808,1394.95,1379.63,1394.95,0.0623,0.0347,1.1982,0.067,-0.031,-0.025,-2.85,1.81,0.1982,-0.5752,0.8013,-0.849,-0.146,0.155,-11.48,-34.52,0.8285,0.2238,0.5474,-0.818,-2.513,3.258,-55.20,23.65,0.02,-1.90,-1.92
822,1440.07,1415.09,1423.15,0.0662,0.0354,1.1980,-0.010,-0.092,0.036,-2.86,1.81,0.2107,-0.5735,0.8137,3.380,-0.589,-1.127,-11.50,-34.49,0.8334,0.2220,0.5291,-1.642,-4.131,2.280,-55.26,23.61,0.02,-1.90,-1.92
847,1454.58,1503.74,1472.31,0.0601,0.0422,1.2034,0.021,0.122,-0.010,-2.86,1.81,0.1978,-0.5593,0.8279,1.686,1.335,-0.166,-11.46,-34.44,0.8301,0.2218,0.4904,-0.253,-1.918,0.540,-55.34,23.62,0.02,-1.92,-1.94
861,1425.57,1457.00,1435.24,0.0571,0.0432,1.1970,0.036,0.045,-0.071,-2.85,1.82,0.2004,-0.5625,0.8201,-1.704,-1.016,0.247,-11.47,-34.46,0.8318,0.2234,0.4939,0.480,0.907,0.296,-55.36,23.64,0.02,-1.93,-1.95
875,1428.79,1432.01,1456.19,0.0559,0.0437,1.1880,0.021,-0.031,0.143,-2.85,1.82,0.2014,-0.5603,0.8210,-1.536,-0.268,-0.120,-11.48,-34.48,0.8292,0.2185,0.5096,0.541,3.197,0.357,-55.33,23.64,0.02,-1.94,-1.96
900,1445.71,1515.82,1482.78,0.0559,0.0437,1.2000,-0.132,-0.153,0.005,-2.85,1.82,0.2021,-0.5693,0.8149,0.342,-0.680,-0.501,-11.49,-34.48,0.8303,0.2058,0.5431,0.785,2.983,-1.170,-55.25,23.60,0.01,-1.94,-1.96
914,1465.05,1500.51,1480.37,0.0657,0.0383,1.1958,-0.056,-0.077,-0.025,-2.86,1.82,0.2036,-0.5640,0.8110,1.212,0.831,-0.211,-11.49,-34.47,0.8246,0.2118,0.5536,0.617,1.319,-3.033,-55.21,23.55,0.01,-1.94,-1.96
939,1423.15,1419.12,1491.65,0.0591,0.0349,1.1919,0.021,0.015,-0.025,-2.86,1.82,0.2009,-0.5698,0.8142,-2.070,-1.383,0.033,-11.52,-34.53,0.8319,0.2344,0.5321,-0.146,-1.734,-4.788,-55.25,23.55,0.01,-1.95,-1.96
953,1441.69,1481.17,1478.75,0.0576,0.0359,1.1965,0.021,0.015,0.081,-2.85,1.82,0.2014,-0.5801,0.8069,-1.734,0.083,0.155,-11.52,-34.58,0.8406,0.2548,0.5090,-0.222,-1.673,-3.857,-55.29,23.61,0.01,-1.95,-1.96
968,1482.78,1494.87,1468.28,0.0542,0.0330,1.1938,-0.117,-0.000,-0.087,-2.85,1.81,0.1873,-0.5728,0.8020,0.403,0.449,-0.028,-11.49,-34.59,0.8374,0.2643,0.5038,0.266,-0.055,-1.994,-55.30,23.70,0.00,-1.96,-1.96
993,1431.21,1444.10,1440.07,0.0564,0.0352,1.1946,0.143,-0.031,0.066,-2.85,1.81,0.2007,-0.5698,0.8245,2.480,0.770,-0.593,-11.47,-34.53,0.8372,0.2570,0.5188,-0.054,2.617,2.967,-55.24,23.75,0.00,-1.96,-1.96
1007,1427.18,1431.21,1482.78,0.0601,0.0378,1.1941,-0.071,-0.092,0.051,-2.85,1.81,0.1956,-0.5586,0.8193,0.220,0.495,-0.288,-11.46,-34.53,0.8285,0.2338,0.5343,-0.085,2.128,4.342,-55.20,23.75,0.00,-1.96,-1.96
1021,1460.22,1473.92,1494.87,0.0615,0.0391,1.1948,-0.010,-0.062,-0.010,-2.85,1.81,0.1995,-0.5652,0.8240,-1.704,-1.444,-0.043,-11.48,-34.55,0.8259,0.2191,0.5496,-0.467,0.327,4.113,-55.18,23.70,0.00,-1.96,-1.96
1046,1430.40,1463.44,1433.63,0.0615,0.0393,1.1953,0.005,-0.031,0.020,-2.85,1.82,0.2029,-0.5591,0.8206,0.373,0.388,-0.150,-11.47,-34.53,0.8231,0.2076,0.5377,-1.154,-3.093,1.227,-55.25,23.62,0.00,-1.96,-1.96
1060,1422.34,1417.51,1444.91,0.0586,0.0437,1.2002,0.005,-0.016,-0.102,-2.85,1.82,0.2007,-0.5649,0.8167,1.441,0.129,-0.349,-11.46,-34.52,0.8274,0.2118,0.5145,-0.680,-2.971,-0.605,-55.31,23.58,0.00,-1.97,-1.97
1085,1475.53,1494.07,1467.47,0.0583,0.0386,1.1963,-0.025,-0.046,0.127,-2.85,1.82,0.1924,-0.5583,0.8257,0.709,0.404,-0.257,-11.44,-34.49,0.8320,0.2231,0.4945,0.175,0.220,-1.689,-55.34,23.60,0.01,-1.97,-1.98
1100,1481.98,1501.32,1442.49,0.0591,0.0386,1.2058,-0.010,0.061,0.081,-2.85,1.82,0.1965,-0.5654,0.8237,-2.421,-1.154,0.079,-11.45,-34.52,0.8339,0.2235,0.5020,0.419,2.556,-1.384,-55.32,23.62,0.01,-1.98,-1.99
1114,1460.22,1503.74,1446.52,0.0625,0.0381,1.2002,-0.040,-0.031,-0.071,-2.85,1.82,0.2031,-0.5691,0.8047,-2.482,-0.299,0.399,-11.46,-34.57,0.8339,0.2227,0.5176,1.030,3.823,-1.704,-55.28,23.62,0.01,-1.98,-1.99
1139,1441.69,1449.74,1481.17,0.0564,0.0356,1.1948,0.036,-0.107,-0.071,-2.85,1.82,0.2009,-0.5688,0.8181,1.503,-0.207,-0.837,-11.47,-34.54,0.8300,0.2267,0.5479,0.572,1.808,-2.437,-55.22,23.62,0.01,-1.98,-1.99
1153,1473.92,1458.61,1498.90,0.0625,0.0334,1.1882,-0.101,-0.016,0.036,-2.86,1.81,0.2075,-0.5723,0.8240,1.686,0.419,-0.379,-11.46,-34.52,0.8326,0.2360,0.5472,-0.146,-0.315,-2.773,-55.21,23.61,0.01,-1.98,-1.99
1178,1440.07,1448.13,1457.80,0.0586,0.0352,1.1990,0.005,0.183,0.036,-2.85,1.81,0.1963,-0.5723,0.8135,-1.062,-0.741,-0.181,-11.48,-34.56,0.8369,0.2521,0.5200,-0.207,-1.658,-1.567,-55.25,23.65,0.01,-1.98,-1.99
1192,1425.57,1437.66,1447.33,0.0576,0.0386,1.2058,-0.040,0.045,-0.041,-2.85,1.81,0.2004,-0.5713,0.8096,-0.757,-0.726,-0.089,-11.49,-34.58,0.8401,0.2542,0.5132,-0.421,-0.925,0.479,-55.28,23.70,0.00,-1.98,-1.99
1217,1462.64,1507.77,1481.17,0.0579,0.0408,1.2039,0.067,0.045,-0.087,-2.84,1.81,0.1985,-0.5647,0.8145,1.533,0.220,-0.471,-11.48,-34.55,0.8296,0.2402,0.5168,-0.344,1.273,3.364,-55.25,23.71,0.00,-1.99,-1.99
1231,1452.16,1495.68,1452.97,0.0586,0.0459,1.1956,-0.056,0.030,-0.010,-2.84,1.82,0.2031,-0.5632,0.8198,1.869,0.037,-0.700,-11.48,-34.52,0.8308,0.2260,0.5295,0.022,1.502,3.487,-55.23,23.70,0.00,-1.99,-1.99
1246,1443.30,1472.31,1445.71,0.0591,0.0391,1.1936,0.082,0.030,0.020,-2.84,1.82,0.1992,-0.5586,0.8281,0.144,0.037,-0.196,-11.47,-34.51,0.8236,0.2115,0.5389,-0.314,0.571,2.800,-55.22,23.65,0.00,-1.98,-1.99
1270,1445.71,1483.59,1465.86,0.0562,0.0381,1.1973,-0.025,0.015,0.066,-2.84,1.82,0.2053,-0.5732,0.8088,-1.902,-0.528,0.109,-11.49,-34.57,0.8276,0.2074,0.5326,-0.512,-1.841,-0.513,-55.26,23.59,-0.00,-1.99,-1.99
1285,1461.03,1480.37,1495.68,0.0552,0.0371,1.1960,-0.025,0.030,-0.056,-2.83,1.82,0.2004,-0.5669,0.8103,0.953,0.129,-0.471,-11.49,-34.57,0.8270,0.2186,0.5239,-0.497,-2.162,-1.949,-55.30,23.56,-0.00,-1.99,-1.99
1309,1414.29,1400.59,1436.85,0.0571,0.0347,1.2000,-0.101,-0.077,0.066,-2.83,1.82,0.2012,-0.5691,0.8201,0.525,0.358,-0.227,-11.48,-34.56,0.8365,0.2300,0.4994,0.129,0.113,-2.559,-55.32,23.59,-0.00,-2.00,-1.99
1324,1439.27,1420.73,1462.64,0.0610,0.0347,1.1982,0.036,0.106,-0.010,-2.83,1.81,0.1995,-0.5688,0.8093,-0.528,0.159,-0.013,-11.47,-34.58,0.8352,0.2349,0.5033,0.572,2.235,-2.101,-55.31,23.63,-0.01,-2.00,-2.00
1348,1470.70,1511.79,1444.10,0.0620,0.0361,1.1870,0.005,0.061,0.005,-2.84,1.81,0.2029,-0.5747,0.8132,-1.307,-0.726,-0.150,-11.49,-34.62,0.8352,0.2340,0.5300,0.663,3.136,-1.078,-55.24,23.65,-0.01,-2.00,-2.00
1363,1446.52,1449.74,1457.80,0.0608,0.0364,1.1956,-0.071,0.106,-0.041,-2.84,1.81,0.1985,-0.5708,0.8130,0.251,0.388,-0.211,-11.48,-34.63,0.8350,0.2334,0.5441,0.358,1.960,-0.956,-55.20,23.64,-0.01,-2.00,-1.99
1387,1456.19,1456.19,1484.40,0.0603,0.0369,1.1995,-0.010,-0.000,-0.010,-2.84,1.81,0.1970,-0.5635,0.8208,1.930,-0.024,-0.669,-11.48,-34.58,0.8303,0.2380,0.5392,-0.222,-0.880,-0.712,-55.21,23.64,-0.01,-2.00,-1.99
1402,1482.78,1500.51,1465.86,0.0566,0.0403,1.1953,-0.025,-0.062,0.051,-2.84,1.81,0.2021,-0.5618,0.8276,0.556,0.190,-0.303,-11.47,-34.56,0.8324,0.2402,0.5289,-0.512,-1.826,0.006,-55.23,23.65,-0.01,-2.00,-1.99
1426,1420.73,1429.60,1456.19,0.0571,0.0422,1.1921,-0.025,-0.031,-0.056,-2.83,1.81,0.2039,-0.5696,0.8181,-1.123,-0.680,0.002,-11.49,-34.59,0.8315,0.2377,0.5139,-0.650,-0.895,1.731,-55.26,23.66,-0.01,-2.00,-1.99
1441,1444.10,1429.60,1480.37,0.0588,0.0417,1.1914,-0.056,0.091,-0.132,-2.83,1.82,0.2041,-0.5657,0.8196,0.235,-0.100,-0.150,-11.50,-34.59,0.8317,0.2300,0.5122,-0.268,0.571,2.250,-55.27,23.66,-0.01,-2.00,-1.99
1465,1458.61,1508.57,1457.00,0.0630,0.0396,1.1924,0.051,-0.077,-0.056,-2.84,1.82,0.2039,-0.5671,0.8193,0.632,0.114,-0.288,-11.49,-34.58,0.8289,0.2158,0.5298,-0.238,0.983,1.487,-55.25,23.63,-0.02,-2.00,-1.99
1480,1444.10,1477.14,1454.58,0.0579,0.0383,1.1995,-0.132,-0.031,0.051,-2.84,1.82,0.1995,-0.5674,0.8159,-0.268,0.068,-0.166,-11.49,-34.59,0.8318,0.2115,0.5314,-0.146,0.204,0.082,-55.25,23.59,-0.02,-2.00,-1.98
1504,1446.52,1457.00,1474.73,0.0583,0.0339,1.1980,0.036,0.045,-0.102,-2.84,1.82,0.1995,-0.5740,0.8152,-1.123,-0.726,-0.105,-11.50,-34.63,0.8313,0.2181,0.5208,-0.085,-0.803,-2.208,-55.28,23.57,-0.02,-2.00,-1.99
1519,1472.31,1482.78,1461.03,0.0618,0.0369,1.1963,-0.025,0.091,0.051,-2.84,1.81,0.2017,-0.5710,0.8130,-0.146,0.205,-0.089,-11.50,-34.64,0.8348,0.2245,0.5146,-0.039,-0.544,-2.498,-55.30,23.57,-0.02,-2.01,-1.99
1543,1426.37,1438.46,1416.70,0.0571,0.0374,1.1948,-0.056,-0.000,0.066,-2.83,1.81,0.1995,-0.5684,0.8220,1.655,-0.131,-0.685,-11.50,-34.60,0.8391,0.2363,0.5116,0.449,1.288,-1.857,-55.29,23.60,-0.02,-2.01,-1.99
1558,1432.01,1445.71,1452.97,0.0593,0.0369,1.2007,0.067,-0.031,0.112,-2.83,1.81,0.2019,-0.5642,0.8147,0.312,-0.085,-0.318,-11.50,-34.59,0.8361,0.2389,0.5167,0.434,2.403,-0.865,-55.26,23.63,-0.02,-2.01,-1.99
1582,1455.38,1501.32,1456.19,0.0576,0.0381,1.1963,-0.010,-0.000,-0.010,-2.83,1.81,0.2026,-0.5728,0.8198,-0.833,-0.405,-0.105,-11.51,-34.62,0.8346,0.2317,0.5361,0.236,1.899,-0.055,-55.21,23.63,-0.03,-2.01,-1.98
1597,1448.13,1505.35,1465.05,0.0627,0.0422,1.1946,-0.025,-0.000,0.051,-2.84,1.82,0.2046,-0.5708,0.8171,0.861,-0.054,-0.532,-11.51,-34.62,0.8254,0.2310,0.5419,-0.054,0.540,0.174,-55.19,23.62,-0.03,-2.01,-1.98
1621,1448.94,1441.69,1478.75,0.0620,0.0396,1.1997,0.021,0.076,0.066,-2.84,1.82,0.2017,-0.5620,0.8198,0.816,0.358,-0.288,-11.50,-34.59,0.8303,0.2352,0.5298,-0.635,-1.612,0.433,-55.23,23.61,-0.03,-2.00,-1.97
1636,1461.03,1490.04,1459.41,0.0601,0.0408,1.1897,0.021,-0.031,0.005,-2.84,1.82,0.1985,-0.5652,0.8206,0.006,-0.192,-0.364,-11.50,-34.59,0.8312,0.2333,0.5198,-0.757,-1.780,0.845,-55.26,23.61,-0.03,-2.00,-1.97
1660,1433.63,1444.10,1443.30,0.0608,0.0393,1.1992,-0.010,0.030,-0.102,-2.84,1.82,0.2048,-0.5676,0.8181,-1.520,-0.558,-0.028,-11.52,-34.63,0.8345,0.2266,0.5121,-0.482,-0.483,1.258,-55.29,23.61,-0.03,-2.01,-1.98
1675,1417.51,1434.43,1432.82,0.0571,0.0364,1.1975,-0.040,-0.016,0.051,-2.84,1.82,0.2009,-0.5730,0.8132,-0.528,-0.070,-0.074,-11.52,-34.65,0.8323,0.2218,0.5134,-0.253,0.601,0.998,-55.30,23.60,-0.03,-2.01,-1.98
1699,1459.41,1526.30,1487.62,0.0596,0.0359,1.1948,-0.025,0.061,0.005,-2.84,1.82,0.1980,-0.5701,0.8223,1.289,-0.024,-0.456,-11.51,-34.62,0.8304,0.2205,0.5215,0.251,1.227,-0.345,-55.28,23.59,-0.04,-2.01,-1.98
1714,1465.86,1533.55,1478.75,0.0581,0.0347,1.1948,0.082,0.015,0.020,-2.83,1.82,0.2000,-0.5654,0.8237,-0.070,0.053,-0.227,-11.51,-34.62,0.8297,0.2206,0.5291,0.236,0.662,-1.475,-55.27,23.58,-0.04,-2.01,-1.98
1728,1431.21,1482.78,1452.97,0.0566,0.0347,1.1921,0.067,0.091,0.097,-2.83,1.81,0.1975,-0.5688,0.8186,-0.589,-0.085,0.018,-11.50,-34.63,0.8325,0.2218,0.5243,0.175,0.357,-1.964,-55.27,23.57,-0.04,-2.01,-1.98
1753,1445.71,1485.20,1470.70,0.0603,0.0378,1.2002,0.051,-0.046,-0.010,-2.83,1.81,0.1992,-0.5679,0.8157,0.571,-0.329,-0.486,-11.51,-34.62,0.8353,0.2349,0.5168,0.159,0.327,-1.933,-55.27,23.59,-0.04,-2.02,-1.98
1767,1478.75,1528.72,1473.92,0.0605,0.0405,1.2012,0.067,0.045,-0.025,-2.83,1.82,0.1970,-0.5669,0.8223,0.922,0.449,-0.318,-11.49,-34.61,0.8334,0.2384,0.5154,0.220,1.075,-1.292,-55.27,23.61,-0.04,-2.02,-1.98
1792,1436.85,1441.69,1457.80,0.0596,0.0383,1.1926,-0.040,-0.031,0.036,-2.83,1.82,0.1970,-0.5640,0.8201,0.419,-0.314,-0.364,-11.49,-34.59,0.8320,0.2367,0.5325,0.205,1.380,0.097,-55.23,23.63,-0.04,-2.01,-1.98
1806,1424.76,1433.63,1469.89,0.0596,0.0393,1.1992,0.082,-0.016,-0.010,-2.84,1.82,0.2017,-0.5598,0.8220,-0.268,-0.344,-0.150,-11.50,-34.59,0.8312,0.2341,0.5355,-0.070,0.754,0.509,-55.21,23.63,-0.04,-2.01,-1.97
1831,1448.13,1507.77,1446.52,0.0559,0.0388,1.1982,-0.040,0.015,0.112,-2.83,1.82,0.2000,-0.5669,0.8108,-0.375,-0.054,-0.059,-11.50,-34.61,0.8317,0.2279,0.5352,-0.314,-0.880,0.708,-55.23,23.61,-0.04,-2.01,-1.97
1845,1414.29,1457.00,1440.88,0.0610,0.0396,1.1978,0.021,0.045,0.143,-2.83,1.82,0.1965,-0.5647,0.8174,1.029,0.175,-0.517,-11.49,-34.59,0.8315,0.2308,0.5294,-0.558,-1.368,0.586,-55.25,23.60,-0.04,-2.01,-1.97
1870,1436.85,1499.71,1488.42,0.0552,0.0334,1.1987,-0.101,0.045,-0.132,-2.83,1.81,0.1958,-0.5725,0.8179,-0.452,-0.131,-0.074,-11.48,-34.61,0.8358,0.2262,0.5131,-0.405,-1.200,0.571,-55.29,23.59,-0.04,-2.01,-1.98
1884,1477.14,1502.12,1464.25,0.0596,0.0361,1.1992,0.005,0.015,0.020,-2.83,1.81,0.2041,-0.5686,0.8115,-0.818,-0.268,0.002,-11.49,-34.63,0.8312,0.2272,0.5109,-0.222,-0.177,0.525,-55.31,23.60,-0.04,-2.02,-1.98
1909,1407.03,1446.52,1464.25,0.0632,0.0332,1.1987,-0.025,0.106,-0.102,-2.83,1.81,0.2021,-0.5667,0.8093,0.113,-0.192,-0.318,-11.50,-34.64,0.8304,0.2202,0.5101,0.266,1.273,-0.223,-55.30,23.60,-0.04,-2.02,-1.98
1923,1407.03,1431.21,1462.64,0.0586,0.0352,1.2024,-0.025,0.091,-0.056,-2.83,1.80,0.2017,-0.5701,0.8154,0.709,0.434,-0.257,-11.49,-34.63,0.8313,0.2216,0.5236,0.327,1.380,-0.895,-55.29,23.59,-0.04,-2.02,-1.98
1948,1452.97,1495.68,1460.22,0.0608,0.0378,1.1982,-0.025,-0.046,-0.025,-2.83,1.80,0.2012,-0.5667,0.8230,0.739,-0.238,-0.410,-11.49,-34.61,0.8307,0.2278,0.5322,0.159,0.968,-1.765,-55.26,23.58,-0.04,-2.02,-1.98
1962,1410.26,1458.61,1422.34,0.0627,0.0408,1.1941,-0.056,-0.062,-0.025,-2.83,1.81,0.2053,-0.5679,0.8188,-0.559,-0.085,-0.135,-11.50,-34.62,0.8323,0.2302,0.5294,0.190,0.525,-1.872,-55.25,23.59,-0.04,-2.02,-1.98
1987,1436.04,1482.78,1482.78,0.0557,0.0420,1.1963,-0.132,-0.077,0.066,-2.83,1.81,0.2034,-0.5664,0.8188,0.037,-0.253,-0.227,-11.51,-34.62,0.8345,0.2358,0.5240,-0.009,0.266,-1.078,-55.25,23.60,-0.04,-2.02,-1.98
2001,1482.78,1520.66,1480.37,0.0574,0.0376,1.1987,0.051,-0.031,-0.102,-2.83,1.81,0.2007,-0.5662,0.8232,0.953,-0.009,-0.379,-11.50,-34.61,0.8314,0.2395,0.5271,-0.146,0.266,-0.315,-55.24,23.61,-0.04,-2.02,-1.98
2026,1405.42,1441.69,1443.30,0.0625,0.0369,1.1968,-0.025,-0.000,0.066,-2.83,1.81,0.1992,-0.5657,0.8262,-0.238,-0.039,-0.120,-11.50,-34.61,0.8306,0.2373,0.5255,-0.222,0.342,0.800,-55.24,23.62,-0.04,-2.02,-1.98
2040,1430.40,1454.58,1457.00,0.0581,0.0371,1.1929,-0.056,0.106,-0.102,-2.83,1.80,0.2021,-0.5706,0.8257,-0.360,-0.512,-0.257,-11.50,-34.62,0.8312,0.2294,0.5242,-0.436,-0.223,0.922,-55.24,23.62,-0.04,-2.02,-1.98
2065,1490.84,1523.08,1461.03,0.0583,0.0361,1.2014,0.005,0.076,0.005,-2.83,1.80,0.1982,-0.5676,0.8152,-0.314,-0.070,-0.120,-11.50,-34.63,0.8300,0.2252,0.5223,-0.405,-0.849,0.952,-55.27,23.60,-0.04,-2.02,-1.98
2079,1453.77,1471.50,1457.00,0.0591,0.0344,1.2002,0.082,-0.016,-0.010,-2.83,1.80,0.1963,-0.5718,0.8154,0.449,0.053,-0.288,-11.49,-34.63,0.8354,0.2252,0.5200,-0.360,-0.880,0.540,-55.29,23.59,-0.04,-2.02,-1.98
2104,1451.36,1473.92,1487.62,0.0603,0.0317,1.2000,0.097,-0.016,-0.117,-2.83,1.80,0.2004,-0.5657,0.8164,0.541,-0.146,-0.379,-11.49,-34.62,0.8324,0.2247,0.5112,-0.207,-0.116,-0.101,-55.31,23.59,-0.04,-2.03,-1.98
2118,1475.53,1485.20,1479.56,0.0608,0.0391,1.1970,0.021,-0.000,-0.132,-2.83,1.80,0.1980,-0.5686,0.8115,-0.604,-0.039,0.033,-11.49,-34.64,0.8335,0.2245,0.5188,0.144,0.846,-0.544,-55.31,23.59,-0.04,-2.03,-1.99
2143,1419.12,1442.49,1429.60,0.0625,0.0378,1.1992,-0.010,0.015,-0.041,-2.83,1.80,0.2002,-0.5686,0.8162,0.495,-0.283,-0.395,-11.50,-34.63,0.8337,0.2245,0.5233,0.358,1.472,-1.307,-55.29,23.59,-0.04,-2.03,-1.99
2157,1440.07,1407.03,1440.07,0.0569,0.0388,1.2000,0.021,0.030,-0.071,-2.83,1.80,0.2000,-0.5676,0.8169,0.892,-0.085,-0.425,-11.49,-34.62,0.8323,0.2268,0.5291,0.312,1.334,-1.414,-55.27,23.59,-0.04,-2.03,-1.99
2182,1457.00,1516.63,1457.00,0.0591,0.0403,1.1938,-0.025,0.045,-0.071,-2.83,1.80,0.1936,-0.5679,0.8242,0.067,0.098,-0.166,-11.48,-34.62,0.8348,0.2302,0.5331,0.251,0.403,-1.521,-55.26,23.59,-0.04,-2.03,-1.99
2196,1433.63,1478.75,1457.00,0.0591,0.0386,1.1965,-0.025,-0.000,-0.071,-2.83,1.80,0.2002,-0.5676,0.8159,-0.085,-0.512,-0.334,-11.49,-34.62,0.8337,0.2380,0.5298,-0.146,0.021,-1.033,-55.25,23.60,-0.04,-2.03,-1.99
2221,1441.69,1468.28,1490.04,0.0613,0.0388,1.1936,0.005,-0.016,-0.071,-2.83,1.80,0.1973,-0.5676,0.8083,-0.803,0.144,0.063,-11.48,-34.65,0.8319,0.2377,0.5240,-0.238,-0.544,-0.040,-55.27,23.61,-0.04,-2.03,-1.99
2235,1473.11,1482.78,1480.37,0.0613,0.0364,1.1917,-0.056,0.015,-0.071,-2.83,1.80,0.2009,-0.5710,0.8105,0.388,-0.039,-0.242,-11.48,-34.66,0.8325,0.2368,0.5229,-0.390,-0.254,0.754,-55.27,23.62,-0.04,-2.03,-1.99
2260,1440.88,1444.91,1465.05,0.0605,0.0356,1.1936,0.021,0.045,0.081,-2.83,1.80,0.2002,-0.5657,0.8198,0.128,-0.024,-0.303,-11.48,-34.65,0.8365,0.2278,0.5201,-0.436,0.052,1.227,-55.28,23.61,-0.04,-2.03,-1.99
2274,1393.33,1401.39,1428.79,0.0605,0.0352,1.1912,0.067,-0.031,0.112,-2.84,1.80,0.1970,-0.5742,0.8079,-0.940,-0.054,0.124,-11.47,-34.68,0.8318,0.2231,0.5190,-0.299,-0.116,1.059,-55.30,23.60,-0.04,-2.03,-2.00
2299,1477.95,1488.42,1458.61,0.0579,0.0388,1.2000,0.036,0.030,-0.041,-2.83,1.80,0.1995,-0.5710,0.8215,0.724,-0.421,-0.379,-11.48,-34.66,0.8330,0.2188,0.5212,-0.405,-0.040,0.311,-55.31,23.57,-0.04,-2.04,-2.00
2313,1470.70,1499.71,1456.19,0.0547,0.0398,1.2009,0.005,-0.092,0.066,-2.83,1.80,0.2004,-0.5693,0.8206,0.373,0.144,-0.242,-11.48,-34.66,0.8307,0.2213,0.5178,-0.176,0.204,-0.391,-55.32,23.56,-0.03,-2.04,-2.00
2338,1422.34,1462.64,1469.08,0.0576,0.0378,1.1968,0.005,0.015,-0.117,-2.83,1.80,0.1990,-0.5669,0.8142,0.617,-0.100,-0.456,-11.47,-34.65,0.8324,0.2241,0.5186,0.266,0.876,-1.338,-55.31,23.56,-0.03,-2.04,-2.01
2352,1461.03,1465.86,1497.29,0.0605,0.0374,1.1958,0.005,-0.031,-0.025,-2.83,1.80,0.1997,-0.5662,0.8140,0.098,-0.421,-0.318,-11.48,-34.65,0.8303,0.2272,0.5220,0.098,1.029,-1.597,-55.30,23.56,-0.03,-2.04,-2.01
2377,1432.82,1440.07,1436.04,0.0583,0.0371,1.1897,-0.010,-0.031,-0.071,-2.83,1.80,0.2012,-0.5647,0.8108,-0.543,0.251,0.079,-11.47,-34.67,0.8320,0.2322,0.5271,0.373,1.212,-1.491,-55.27,23.57,-0.03,-2.04,-2.01
2391,1432.82,1444.10,1449.74,0.0625,0.0378,1.1980,-0.010,0.076,0.081,-2.83,1.80,0.2014,-0.5654,0.8142,0.770,-0.207,-0.547,-11.48,-34.66,0.8324,0.2329,0.5293,0.251,0.708,-1.124,-55.26,23.58,-0.03,-2.04,-2.01
2416,1457.00,1490.84,1454.58,0.0576,0.0381,1.1931,-0.040,-0.031,0.112,-2.83,1.80,0.2021,-0.5667,0.8149,-0.192,0.068,-0.120,-11.48,-34.67,0.8320,0.2354,0.5311,-0.390,-0.192,-0.101,-55.26,23.58,-0.03,-2.04,-2.01
2431,1447.33,1495.68,1457.80,0.0569,0.0359,1.1914,0.051,-0.062,-0.010,-2.83,1.80,0.1997,-0.5713,0.8145,-0.665,-0.085,-0.120,-11.47,-34.69,0.8356,0.2378,0.5251,-0.222,-0.437,0.403,-55.27,23.59,-0.03,-2.04,-2.01
2455,1457.00,1444.10,1496.48,0.0569,0.0386,1.1929,-0.025,0.015,-0.010,-2.83,1.80,0.2012,-0.5686,0.8174,0.174,-0.222,-0.379,-11.48,-34.68,0.8315,0.2322,0.5242,-0.390,-0.376,0.983,-55.28,23.59,-0.03,-2.04,-2.01
2470,1431.21,1480.37,1457.00,0.0579,0.0364,1.1897,-0.010,-0.031,0.036,-2.83,1.80,0.1951,-0.5732,0.8123,0.266,0.129,-0.181,-11.47,-34.69,0.8358,0.2299,0.5170,-0.528,-0.284,1.013,-55.29,23.59,-0.03,-2.04,-2.01
2494,1435.24,1456.19,1440.07,0.0610,0.0383,1.2017,-0.025,-0.031,0.051,-2.83,1.80,0.1958,-0.5674,0.8086,0.602,0.007,-0.379,-11.46,-34.68,0.8290,0.2234,0.5227,-0.100,0.250,0.525,-55.29,23.58,-0.03,-2.04,-2.01
2509,1431.21,1444.10,1451.36,0.0586,0.0403,1.1963,0.021,0.045,0.051,-2.83,1.80,0.1990,-0.5652,0.8201,0.235,-0.329,-0.303,-11.47,-34.68,0.8339,0.2236,0.5251,-0.100,0.525,0.082,-55.29,23.57,-0.03,-2.04,-2.01
2533,1485.20,1504.54,1468.28,0.0569,0.0415,1.1990,0.036,-0.000,0.066,-2.83,1.81,0.1985,-0.5684,0.8140,-0.330,0.129,-0.028,-11.46,-34.69,0.8295,0.2198,0.5197,0.144,0.372,-0.926,-55.29,23.56,-0.03,-2.04,-2.02
2547,1490.04,1497.29,1458.61,0.0574,0.0405,1.1936,-0.010,-0.016,-0.117,-2.83,1.81,0.2051,-0.5728,0.8223,0.587,-0.176,-0.318,-11.46,-34.69,0.8304,0.2219,0.5237,0.312,0.586,-1.445,-55.29,23.55,-0.03,-2.04,-2.02
2572,1448.13,1435.24,1465.86,0.0632,0.0396,1.1926,-0.040,0.122,0.036,-2.83,1.81,0.2039,-0.5654,0.8186,-0.131,0.114,-0.089,-11.46,-34.69,0.8320,0.2311,0.5234,0.159,0.769,-1.567,-55.28,23.56,-0.02,-2.04,-2.02
2586,1458.61,1478.75,1490.84,0.0618,0.0359,1.1978,-0.071,-0.107,0.036,-2.83,1.81,0.1973,-0.5669,0.8132,-0.574,-0.039,-0.028,-11.46,-34.70,0.8329,0.2339,0.5200,0.175,0.785,-1.353,-55.27,23.57,-0.02,-2.04,-2.02
2611,1426.37,1423.96,1432.82,0.0601,0.0398,1.1978,-0.117,0.015,0.020,-2.83,1.81,0.1997,-0.5740,0.8125,0.190,-0.192,-0.364,-11.46,-34.71,0.8335,0.2389,0.5256,-0.100,0.510,-0.437,-55.26,23.59,-0.02,-2.04,-2.02
2626,1407.03,1448.94,1441.69,0.0596,0.0352,1.1909,-0.040,0.030,0.036,-2.83,1.81,0.2000,-0.5647,0.8171,0.083,0.190,-0.181,-11.46,-34.70,0.8334,0.2369,0.5236,-0.268,0.159,0.311,-55.26,23.60,-0.02,-2.04,-2.02
2650,1467.47,1507.77,1456.19,0.0588,0.0364,1.1948,0.036,-0.016,0.036,-2.83,1.80,0.1985,-0.5686,0.8220,0.464,-0.161,-0.410,-11.46,-34.69,0.8361,0.2313,0.5260,-0.207,-0.406,0.800,-55.28,23.60,-0.02,-2.04,-2.02
2665,1481.98,1494.07,1466.67,0.0596,0.0381,1.2009,0.051,-0.031,0.081,-2.83,1.81,0.1968,-0.5649,0.8181,0.022,-0.314,-0.242,-11.46,-34.69,0.8337,0.2277,0.5232,-0.467,-0.513,1.074,-55.29,23.59,-0.02,-2.04,-2.02
2689,1443.30,1464.25,1477.14,0.0583,0.0364,1.1995,-0.071,0.091,-0.010,-2.83,1.80,0.2000,-0.5706,0.8123,-0.223,0.159,-0.120,-11.45,-34.70,0.8304,0.2242,0.5172,-0.268,-0.162,0.586,-55.30,23.58,-0.02,-2.04,-2.03
2704,1449.74,1473.92,1496.48,0.0632,0.0410,1.1980,0.082,0.091,0.066,-2.83,1.81,0.2048,-0.5615,0.8250,0.831,-0.100,-0.517,-11.46,-34.68,0.8322,0.2214,0.5226,-0.024,0.235,0.158,-55.31,23.57,-0.02,-2.05,-2.03
2728,1431.21,1461.83,1454.58,0.0564,0.0408,1.1990,0.067,-0.062,-0.010,-2.83,1.81,0.2002,-0.5671,0.8157,-0.192,0.236,0.048,-11.45,-34.69,0.8289,0.2244,0.5201,0.129,0.678,-0.666,-55.30,23.57,-0.02,-2.05,-2.03
2743,1432.01,1430.40,1461.03,0.0603,0.0359,1.1965,0.082,0.015,-0.071,-2.83,1.81,0.1990,-0.5674,0.8186,-0.268,-0.253,-0.288,-11.45,-34.69,0.8336,0.2198,0.5211,0.098,0.830,-1.155,-55.30,23.55,-0.01,-2.05,-2.03
2767,1475.53,1519.85,1465.86,0.0593,0.0359,1.1958,0.021,-0.016,-0.025,-2.83,1.81,0.1995,-0.5669,0.8208,-0.223,0.068,-0.196,-11.44,-34.70,0.8326,0.2303,0.5238,0.297,0.617,-1.506,-55.29,23.56,-0.01,-2.05,-2.04
2782,1490.84,1501.32,1431.21,0.0598,0.0371,1.1948,0.021,-0.000,0.005,-2.83,1.81,0.1956,-0.5706,0.8123,-0.131,0.053,-0.196,-11.44,-34.71,0.8352,0.2336,0.5240,0.083,0.464,-1.399,-55.29,23.57,-0.01,-2.05,-2.04
2806,1445.71,1456.19,1481.17,0.0618,0.0361,1.1951,-0.071,-0.031,-0.025,-2.84,1.81,0.1943,-0.5671,0.8157,0.663,-0.100,-0.410,-11.43,-34.69,0.8318,0.2340,0.5223,0.144,0.479,-0.636,-55.28,23.59,-0.01,-2.05,-2.04
2821,1432.01,1481.17,1495.68,0.0591,0.0378,1.1982,0.067,0.091,0.005,-2.83,1.81,0.1975,-0.5681,0.8242,-0.330,-0.115,-0.150,-11.43,-34.70,0.8357,0.2373,0.5245,-0.024,0.220,-0.086,-55.28,23.60,-0.01,-2.05,-2.04
2845,1431.21,1459.41,1461.83,0.0571,0.0378,1.1907,0.067,0.045,0.066,-2.83,1.81,0.1980,-0.5686,0.8140,0.174,0.007,-0.288,-11.43,-34.70,0.8308,0.2319,0.5259,-0.329,0.067,0.632,-55.28,23.60,-0.00,-2.05,-2.04
2860,1431.21,1447.33,1446.52,0.0588,0.0354,1.1904,0.097,-0.016,-0.010,-2.83,1.81,0.1997,-0.5640,0.8171,0.739,-0.222,-0.410,-11.43,-34.68,0.8353,0.2297,0.5267,-0.283,-0.070,0.845,-55.28,23.60,-0.00,-2.05,-2.04
2884,1482.78,1468.28,1468.28,0.0618,0.0359,1.1941,0.051,-0.000,-0.010,-2.83,1.81,0.1951,-0.5679,0.8191,-0.207,0.236,-0.059,-11.42,-34.69,0.8333,0.2240,0.5240,-0.344,-0.208,0.693,-55.29,23.58,0.00,-2.05,-2.05
2899,1482.78,1494.07,1442.49,0.0603,0.0376,1.2021,-0.071,-0.000,0.005,-2.83,1.81,0.1990,-0.5679,0.8154,-0.055,-0.390,-0.410,-11.42,-34.69,0.8311,0.2212,0.5203,-0.283,-0.055,0.357,-55.30,23.56,0.00,-2.05,-2.05
2923,1439.27,1439.27,1448.94,0.0586,0.0400,1.1912,-0.101,0.030,0.097,-2.83,1.81,0.1982,-0.5688,0.8162,-0.177,0.083,-0.120,-11.41,-34.70,0.8301,0.2252,0.5232,0.007,0.433,-0.437,-55.30,23.56,0.01,-2.05,-2.06
2938,1445.71,1459.41,1461.03,0.0630,0.0361,1.1936,-0.117,0.076,0.081,-2.84,1.80,0.1980,-0.5669,0.8130,-0.070,0.220,-0.181,-11.41,-34.71,0.8309,0.2233,0.5226,0.007,0.540,-0.941,-55.30,23.55,0.01,-2.05,-2.06
2962,1432.01,1465.86,1432.01,0.0574,0.0398,1.1975,0.021,0.076,0.097,-2.83,1.81,0.2002,-0.5630,0.8215,0.632,-0.070,-0.395,-11.41,-34.69,0.8331,0.2252,0.5249,0.098,0.861,-1.262,-55.28,23.55,0.01,-2.05,-2.06
2976,1415.09,1444.91,1432.82,0.0601,0.0400,1.1973,-0.056,0.015,-0.010,-2.83,1.81,0.1985,-0.5688,0.8159,-0.589,0.129,-0.028,-11.41,-34.70,0.8308,0.2310,0.5214,0.343,0.632,-1.353,-55.28,23.56,0.01,-2.05,-2.06
3001,1451.36,1491.65,1445.71,0.0601,0.0327,1.1921,0.067,-0.000,-0.041,-2.83,1.80,0.2017,-0.5667,0.8154,0.434,-0.344,-0.471,-11.42,-34.69,0.8379,0.2343,0.5247,-0.100,0.449,-0.590,-55.27,23.56,0.02,-2.05,-2.06
3015,1482.78,1504.54,1471.50,0.0552,0.0403,1.1980,-0.010,0.015,0.020,-2.83,1.81,0.1997,-0.5696,0.8162,0.434,-0.131,-0.364,-11.42,-34.69,0.8319,0.2371,0.5245,-0.054,0.372,-0.330,-55.27,23.58,0.02,-2.05,-2.06
3040,1426.37,1449.74,1459.41,0.0601,0.0376,1.2009,0.067,0.030,0.005,-2.83,1.81,0.2009,-0.5696,0.8149,0.235,-0.039,-0.242,-11.42,-34.69,0.8362,0.2335,0.5233,-0.222,0.327,0.326,-55.27,23.58,0.02,-2.05,-2.06
3054,1457.00,1457.00,1498.10,0.0603,0.0366,1.1992,0.067,-0.000,-0.025,-2.83,1.81,0.2007,-0.5662,0.8145,0.480,-0.283,-0.379,-11.42,-34.68,0.8322,0.2325,0.5248,-0.344,-0.009,0.540,-55.27,23.58,0.02,-2.04,-2.06
3079,1456.19,1468.28,1464.25,0.0564,0.0369,1.1980,-0.010,-0.092,0.020,-2.83,1.81,0.2000,-0.5684,0.8188,-0.238,0.053,-0.089,-11.42,-34.69,0.8318,0.2267,0.5250,-0.161,-0.009,0.464,-55.27,23.58,0.02,-2.04,-2.06
3093,1435.24,1469.08,1448.94,0.0605,0.0371,1.1992,-0.010,-0.000,0.051,-2.83,1.81,0.1990,-0.5686,0.8086,0.541,0.068,-0.334,-11.42,-34.69,0.8314,0.2271,0.5200,-0.283,-0.070,0.403,-55.28,23.57,0.02,-2.04,-2.07
3118,1473.11,1472.31,1458.61,0.0583,0.0378,1.1958,0.067,-0.092,0.051,-2.83,1.81,0.2039,-0.5684,0.8174,-0.039,-0.085,-0.227,-11.42,-34.70,0.8361,0.2240,0.5239,-0.131,0.082,-0.116,-55.29,23.56,0.02,-2.04,-2.07
3133,1462.64,1494.07,1457.00,0.0620,0.0405,1.1968,0.005,-0.092,-0.010,-2.84,1.81,0.1990,-0.5681,0.8149,-0.436,0.266,0.002,-11.42,-34.71,0.8337,0.2252,0.5238,0.037,0.342,-0.498,-55.29,23.56,0.02,-2.05,-2.07
3157,1419.12,1432.01,1451.36,0.0615,0.0391,1.1978,0.021,-0.016,0.036,-2.84,1.81,0.2053,-0.5703,0.8215,0.327,-0.421,-0.471,-11.43,-34.70,0.8339,0.2268,0.5228,0.007,0.754,-1.063,-55.28,23.55,0.02,-2.04,-2.07
3172,1444.10,1452.97,1461.03,0.0620,0.0342,1.1924,0.036,0.030,-0.025,-2.84,1.81,0.2017,-0.5708,0.8232,0.174,0.312,-0.166,-11.42,-34.70,0.8320,0.2278,0.5190,0.053,0.678,-1.246,-55.28,23.56,0.03,-2.04,-2.07
3186,1455.38,1466.67,1476.34,0.0613,0.0334,1.2043,0.036,-0.062,0.005,-2.84,1.80,0.1956,-0.5691,0.8118,0.128,0.053,-0.166,-11.42,-34.70,0.8320,0.2321,0.5227,0.266,0.754,-1.216,-55.28,23.57,0.03,-2.04,-2.07
3210,1419.93,1430.40,1430.40,0.0574,0.0388,1.1934,-0.025,0.061,0.173,-2.84,1.81,0.2041,-0.5684,0.8159,0.327,-0.161,-0.440,-11.43,-34.70,0.8335,0.2313,0.5243,-0.070,0.525,-0.559,-55.27,23.57,0.03,-2.04,-2.07
3225,1442.49,1434.43,1440.88,0.0586,0.0361,1.1982,-0.040,-0.000,-0.010,-2.84,1.80,0.1975,-0.5701,0.8147,-0.528,0.129,0.048,-11.42,-34.71,0.8330,0.2317,0.5212,-0.192,0.235,-0.132,-55.27,23.58,0.03,-2.04,-2.07
3249,1468.28,1497.29,1471.50,0.0618,0.0371,1.2014,-0.025,-0.000,-0.025,-2.84,1.80,0.2009,-0.5708,0.8230,0.846,-0.344,-0.501,-11.43,-34.69,0.8354,0.2316,0.5222,-0.314,0.037,0.387,-55.28,23.58,0.03,-2.04,-2.07
3264,1461.03,1495.68,1439.27,0.0586,0.0396,1.1973,-0.056,0.061,-0.071,-2.84,1.80,0.2024,-0.5664,0.8135,0.373,0.114,-0.364,-11.43,-34.69,0.8297,0.2296,0.5249,-0.283,-0.147,0.555,-55.28,23.57,0.03,-2.04,-2.07
3288,1442.49,1457.80,1480.37,0.0562,0.0352,1.1982,-0.071,0.045,0.005,-2.84,1.80,0.1982,-0.5659,0.8088,-0.146,0.129,-0.196,-11.42,-34.70,0.8324,0.2273,0.5234,-0.115,-0.101,0.219,-55.29,23.57,0.03,-2.04,-2.07
3303,1457.00,1473.11,1481.98,0.0586,0.0356,1.1985,-0.025,0.091,0.143,-2.83,1.80,0.2017,-0.5671,0.8167,0.617,-0.314,-0.501,-11.43,-34.69,0.8291,0.2262,0.5188,-0.222,0.113,0.097,-55.29,23.56,0.03,-2.04,-2.07
3327,1414.29,1435.24,1406.23,0.0581,0.0378,1.1963,0.021,0.015,-0.056,-2.83,1.80,0.1992,-0.5676,0.8137,-0.345,0.251,-0.074,-11.42,-34.70,0.8342,0.2229,0.5186,-0.070,0.357,-0.254,-55.30,23.56,0.03,-2.04,-2.07
3342,1411.87,1439.27,1457.00,0.0559,0.0408,1.1924,-0.056,0.061,0.020,-2.83,1.80,0.1980,-0.5696,0.8142,0.190,0.037,-0.120,-11.42,-34.71,0.8314,0.2236,0.5183,-0.009,0.311,-0.529,-55.30,23.55,0.03,-2.04,-2.07
3366,1482.78,1498.90,1457.00,0.0588,0.0366,1.1929,0.051,-0.077,0.036,-2.83,1.80,0.2021,-0.5718,0.8174,-0.146,-0.100,-0.242,-11.42,-34.71,0.8323,0.2278,0.5223,0.083,0.693,-0.895,-55.29,23.55,0.03,-2.05,-2.07
3381,1457.80,1494.87,1457.00,0.0574,0.0432,1.1968,0.005,0.015,0.020,-2.83,1.81,0.1997,-0.5723,0.8120,-0.497,0.297,0.018,-11.42,-34.73,0.8304,0.2290,0.5211,0.083,0.601,-1.078,-55.29,23.56,0.03,-2.05,-2.08
3395,1405.42,1438.46,1426.37,0.0608,0.0420,1.2004,0.036,0.061,0.020,-2.83,1.81,0.2014,-0.5718,0.8162,0.464,-0.176,-0.288,-11.42,-34.73,0.8337,0.2275,0.5239,0.190,0.724,-1.033,-55.29,23.56,0.03,-2.05,-2.08
3420,1465.05,1445.71,1474.73,0.0596,0.0393,1.1985,0.128,-0.016,0.005,-2.83,1.81,0.1978,-0.5654,0.8157,0.235,0.159,-0.196,-11.41,-34.72,0.8318,0.2307,0.5245,-0.085,0.479,-0.483,-55.28,23.56,0.03,-2.05,-2.08
3434,1479.56,1486.81,1486.81,0.0574,0.0405,1.2034,-0.025,-0.092,0.036,-2.83,1.82,0.1946,-0.5662,0.8159,-0.268,0.114,-0.105,-11.40,-34.73,0.8306,0.2335,0.5273,-0.054,0.189,-0.086,-55.27,23.57,0.03,-2.05,-2.08
3459,1425.57,1427.18,1462.64,0.0579,0.0386,1.1885,-0.071,-0.077,0.051,-2.83,1.82,0.2007,-0.5632,0.8171,0.327,-0.176,-0.288,-11.41,-34.72,0.8367,0.2284,0.5254,-0.314,-0.116,0.418,-55.28,23.56,0.03,-2.05,-2.08
3473,1432.01,1445.71,1456.19,0.0564,0.0369,1.2012,0.021,0.091,0.097,-2.83,1.81,0.2024,-0.5718,0.8159,-0.223,0.037,-0.059,-11.41,-34.73,0.8333,0.2277,0.5222,-0.375,-0.086,0.555,-55.29,23.55,0.03,-2.05,-2.08
3498,1470.70,1495.68,1447.33,0.0583,0.0386,1.2014,-0.010,0.030,-0.041,-2.82,1.81,0.1975,-0.5710,0.8091,0.495,-0.100,-0.303,-11.41,-34.72,0.8322,0.2231,0.5209,-0.054,-0.162,0.128,-55.31,23.54,0.03,-2.05,-2.08
3512,1428.79,1454.58,1420.73,0.0603,0.0364,1.2012,-0.025,-0.077,-0.071,-2.83,1.81,0.1946,-0.5686,0.8179,0.541,-0.253,-0.425,-11.41,-34.72,0.8315,0.2229,0.5204,-0.268,0.098,-0.055,-55.31,23.53,0.03,-2.05,-2.09
3537,1457.00,1469.89,1483.59,0.0623,0.0361,1.1970,0.005,0.061,-0.025,-2.83,1.81,0.1973,-0.5684,0.8115,-0.406,0.220,0.018,-11.40,-34.73,0.8318,0.2263,0.5223,-0.024,0.433,-0.437,-55.31,23.53,0.04,-2.05,-2.09
3551,1474.73,1457.80,1493.26,0.0610,0.0376,1.1987,-0.086,-0.000,0.051,-2.83,1.81,0.2002,-0.5667,0.8132,0.556,-0.314,-0.440,-11.40,-34.73,0.8329,0.2252,0.5168,0.053,0.388,-0.590,-55.31,23.53,0.04,-2.05,-2.09
3576,1434.43,1440.07,1441.69,0.0576,0.0366,1.1975,0.005,-0.031,-0.056,-2.83,1.81,0.2014,-0.5703,0.8169,-0.146,0.266,-0.028,-11.40,-34.74,0.8330,0.2283,0.5231,0.053,0.632,-0.742,-55.30,23.53,0.04,-2.06,-2.09
3590,1425.57,1418.32,1461.83,0.0632,0.0378,1.1887,0.051,-0.092,0.127,-2.83,1.81,0.1990,-0.5718,0.8167,-0.131,0.068,-0.166,-11.39,-34.74,0.8312,0.2274,0.5280,0.098,0.571,-0.880,-55.30,23.53,0.04,-2.06,-2.10
3615,1473.92,1487.62,1457.00,0.0571,0.0369,1.1970,0.005,-0.031,0.066,-2.83,1.81,0.2004,-0.5657,0.8250,0.357,-0.100,-0.471,-11.39,-34.73,0.8312,0.2314,0.5254,-0.024,0.464,-0.758,-55.29,23.54,0.04,-2.06,-2.10
3629,1451.36,1485.20,1436.85,0.0601,0.0374,1.1943,-0.071,0.030,-0.071,-2.83,1.81,0.1990,-0.5664,0.8164,-0.284,0.388,-0.013,-11.39,-34.73,0.8369,0.2308,0.5270,-0.161,0.250,-0.437,-55.29,23.54,0.04,-2.06,-2.10
3654,1446.52,1453.77,1482.78,0.0613,0.0374,1.1970,-0.010,0.061,-0.132,-2.83,1.81,0.1997,-0.5669,0.8118,0.831,-0.207,-0.456,-11.39,-34.72,0.8296,0.2317,0.5195,-0.161,0.143,0.097,-55.29,23.54,0.04,-2.05,-2.10
3668,1448.94,1483.59,1486.81,0.0610,0.0374,1.1973,-0.056,-0.031,0.051,-2.84,1.81,0.1990,-0.5637,0.8196,-0.116,-0.024,-0.135,-11.39,-34.72,0.8352,0.2318,0.5210,-0.146,-0.101,0.326,-55.30,23.55,0.05,-2.06,-2.10
3693,1411.06,1430.40,1442.49,0.0637,0.0352,1.1960,0.036,0.015,0.005,-2.84,1.80,0.1987,-0.5723,0.8147,-0.009,-0.131,-0.379,-11.39,-34.72,0.8330,0.2238,0.5231,-0.299,-0.070,0.479,-55.31,23.53,0.05,-2.06,-2.10
3707,1391.72,1428.79,1440.07,0.0564,0.0393,1.1951,-0.071,-0.062,0.020,-2.84,1.80,0.2009,-0.5671,0.8247,0.602,-0.329,-0.425,-11.40,-34.71,0.8346,0.2264,0.5229,-0.161,0.128,0.174,-55.31,23.53,0.05,-2.06,-2.10
3732,1479.56,1509.38,1456.19,0.0581,0.0334,1.1978,0.021,0.076,0.097,-2.83,1.80,0.1968,-0.5698,0.8110,-0.223,0.236,-0.043,-11.39,-34.72,0.8307,0.2222,0.5188,-0.070,0.098,-0.284,-55.32,23.52,0.05,-2.06,-2.11
3746,1460.22,1459.41,1455.38,0.0586,0.0376,1.1941,0.005,-0.031,0.005,-2.83,1.80,0.1965,-0.5676,0.8174,0.464,-0.100,-0.334,-11.38,-34.72,0.8302,0.2253,0.5225,-0.100,0.525,-0.636,-55.32,23.51,0.05,-2.06,-2.11
3771,1431.21,1451.36,1482.78,0.0559,0.0391,1.1965,-0.056,0.045,0.081,-2.83,1.80,0.2039,-0.5671,0.8135,-0.070,-0.009,-0.181,-11.39,-34.72,0.8335,0.2284,0.5219,0.083,0.632,-0.819,-55.31,23.52,0.05,-2.06,-2.11
3785,1469.08,1486.81,1483.59,0.0598,0.0381,1.2014,-0.010,-0.031,0.020,-2.83,1.80,0.2026,-0.5684,0.8145,-0.299,0.083,-0.150,-11.39,-34.73,0.8335,0.2279,0.5211,-0.070,0.632,-0.773,-55.31,23.52,0.05,-2.06,-2.11
3810,1422.34,1438.46,1432.01,0.0586,0.0417,1.1956,0.005,-0.062,0.036,-2.83,1.81,0.1992,-0.5708,0.8179,0.495,-0.299,-0.395,-11.40,-34.72,0.8334,0.2307,0.5276,0.175,0.510,-0.742,-55.30,23.53,0.05,-2.06,-2.11
3824,1425.57,1421.54,1454.58,0.0601,0.0356,1.2009,0.051,-0.062,0.143,-2.83,1.80,0.1948,-0.5686,0.8203,0.159,0.007,-0.028,-11.39,-34.72,0.8314,0.2307,0.5260,-0.039,0.449,-0.575,-55.29,23.53,0.05,-2.06,-2.11
3849,1480.37,1482.78,1452.97,0.0605,0.0364,1.2021,-0.010,0.030,-0.010,-2.83,1.80,0.2007,-0.5710,0.8188,0.174,-0.192,-0.303,-11.39,-34.72,0.8354,0.2301,0.5249,-0.115,0.052,-0.162,-55.30,23.53,0.05,-2.06,-2.12
3863,1472.31,1497.29,1444.91,0.0576,0.0381,1.1926,-0.025,-0.000,0.112,-2.83,1.80,0.2021,-0.5713,0.8135,0.312,-0.131,-0.318,-11.40,-34.72,0.8335,0.2314,0.5248,-0.222,-0.040,0.128,-55.30,23.53,0.05,-2.06,-2.12
3888,1432.01,1444.10,1492.45,0.0588,0.0403,1.1946,-0.025,-0.062,-0.071,-2.83,1.80,0.1980,-0.5696,0.8145,-0.238,0.129,0.002,-11.39,-34.73,0.8330,0.2253,0.5193,-0.207,0.006,0.357,-55.31,23.52,0.06,-2.06,-2.12
3903,1469.89,1482.78,1494.87,0.0605,0.0349,1.2026,0.051,-0.000,-0.010,-2.83,1.80,0.2019,-0.5671,0.8186,0.800,-0.329,-0.456,-11.40,-34.72,0.8309,0.2261,0.5222,-0.344,0.128,0.280,-55.31,23.52,0.06,-2.06,-2.12
3927,1436.85,1457.00,1452.97,0.0564,0.0388,1.1985,-0.025,0.061,0.081,-2.83,1.80,0.2002,-0.5703,0.8154,-0.574,0.053,0.018,-11.40,-34.74,0.8317,0.2271,0.5228,0.068,0.098,-0.147,-55.32,23.52,0.06,-2.06,-2.12
3942,1382.05,1413.48,1423.15,0.0608,0.0388,1.2002,0.021,-0.077,-0.056,-2.83,1.80,0.1968,-0.5720,0.8162,0.037,-0.054,-0.181,-11.39,-34.74,0.8340,0.2256,0.5256,-0.054,0.342,-0.422,-55.32,23.51,0.06,-2.06,-2.12
3966,1484.40,1498.10,1461.83,0.0571,0.0371,1.1924,-0.010,-0.092,0.020,-2.83,1.80,0.2019,-0.5671,0.8184,0.235,-0.054,-0.272,-11.39,-34.74,0.8339,0.2245,0.5214,0.083,0.617,-0.773,-55.31,23.51,0.06,-2.07,-2.12
3981,1462.64,1494.87,1465.05,0.0554,0.0427,1.1990,-0.117,0.045,0.036,-2.83,1.81,0.1990,-0.5701,0.8101,-0.375,0.190,0.018,-11.39,-34.75,0.8341,0.2280,0.5228,0.114,0.495,-0.941,-55.31,23.51,0.06,-2.07,-2.12
3995,1429.60,1493.26,1434.43,0.0564,0.0352,1.1965,0.036,-0.000,0.051,-2.83,1.80,0.1978,-0.5676,0.8164,0.327,-0.146,-0.211,-11.39,-34.75,0.8351,0.2308,0.5187,0.007,0.647,-0.804,-55.31,23.52,0.06,-2.07,-2.12
4020,1439.27,1462.64,1482.78,0.0625,0.0408,1.1963,-0.056,0.015,0.020,-2.83,1.81,0.2004,-0.5708,0.8140,-0.268,0.037,-0.105,-11.39,-34.76,0.8341,0.2277,0.5247,0.129,0.388,-0.620,-55.31,23.52,0.06,-2.07,-2.12
4034,1461.83,1478.75,1473.92,0.0613,0.0349,1.1973,0.051,-0.031,-0.071,-2.83,1.80,0.2004,-0.5752,0.8132,-0.192,0.159,-0.150,-11.39,-34.77,0.8323,0.2303,0.5227,-0.085,0.311,-0.391,-55.31,23.53,0.06,-2.07,-2.12
4059,1436.04,1459.41,1438.46,0.0598,0.0366,1.2036,-0.056,0.045,0.005,-2.83,1.80,0.2034,-0.5742,0.8267,0.419,-0.253,-0.410,-11.39,-34.76,0.8345,0.2319,0.5248,-0.253,0.113,0.051,-55.31,23.53,0.06,-2.07,-2.13
4073,1411.06,1443.30,1477.95,0.0605,0.0378,1.1973,-0.025,-0.000,0.158,-2.83,1.80,0.1982,-0.5713,0.8198,-0.497,0.068,-0.059,-11.39,-34.77,0.8309,0.2264,0.5221,-0.085,0.067,0.189,-55.31,23.53,0.06,-2.07,-2.13
4098,1478.75,1499.71,1446.52,0.0576,0.0398,1.1970,-0.040,0.061,-0.056,-2.83,1.80,0.1970,-0.5759,0.8181,0.419,-0.176,-0.379,-11.39,-34.77,0.8354,0.2239,0.5217,-0.268,-0.101,0.250,-55.32,23.51,0.06,-2.07,-2.13
4112,1444.10,1469.89,1425.57,0.0591,0.0347,1.1990,-0.086,-0.016,0.005,-2.83,1.80,0.2026,-0.5652,0.8154,0.419,-0.176,-0.379,-11.39,-34.76,0.8335,0.2275,0.5231,-0.176,0.143,0.128,-55.33,23.51,0.06,-2.07,-2.13
4137,1462.64,1462.64,1457.00,0.0579,0.0347,1.1926,0.021,-0.077,0.066,-2.83,1.80,0.1990,-0.5708,0.8132,-0.024,0.068,-0.074,-11.39,-34.77,0.8322,0.2244,0.5212,0.037,0.235,-0.239,-55.33,23.51,0.06,-2.07,-2.13
4151,1494.87,1479.56,1474.73,0.0576,0.0386,1.1975,-0.086,-0.016,-0.041,-2.83,1.80,0.2007,-0.5681,0.8115,0.541,-0.360,-0.425,-11.40,-34.77,0.8312,0.2251,0.5181,-0.192,0.235,-0.361,-55.34,23.50,0.06,-2.08,-2.13
4176,1429.60,1452.16,1459.41,0.0615,0.0356,1.1946,0.021,0.061,-0.025,-2.83,1.79,0.1968,-0.5693,0.8167,-0.330,0.175,-0.089,-11.39,-34.78,0.8352,0.2253,0.5262,0.053,0.662,-0.681,-55.33,23.50,0.06,-2.08,-2.13
4190,1405.42,1431.21,1464.25,0.0591,0.0410,1.1912,0.021,0.045,-0.102,-2.83,1.80,0.1936,-0.5715,0.8167,-0.009,0.007,-0.196,-11.38,-34.78,0.8318,0.2256,0.5249,0.312,0.464,-0.880,-55.32,23.50,0.06,-2.08,-2.14
4205,1446.52,1468.28,1483.59,0.0579,0.0410,1.1929,0.005,0.015,0.066,-2.83,1.80,0.1990,-0.5667,0.8174,0.709,-0.329,-0.532,-11.38,-34.77,0.8345,0.2283,0.5256,-0.054,0.632,-0.727,-55.32,23.50,0.06,-2.08,-2.14
4229,1449.74,1483.59,1431.21,0.0559,0.0366,1.1960,-0.071,0.015,-0.025,-2.82,1.80,0.2019,-0.5703,0.8157,-0.467,0.236,0.094,-11.38,-34.79,0.8325,0.2306,0.5250,0.205,0.204,-0.605,-55.31,23.51,0.06,-2.08,-2.14
4244,1447.33,1454.58,1455.38,0.0596,0.0396,1.1982,0.036,-0.046,-0.041,-2.83,1.80,0.2012,-0.5686,0.8228,0.266,-0.390,-0.288,-11.39,-34.78,0.8362,0.2288,0.5223,-0.039,0.174,-0.284,-55.32,23.51,0.06,-2.08,-2.14
4269,1462.64,1472.31,1485.20,0.0598,0.0391,1.1992,-0.010,-0.062,0.066,-2.83,1.80,0.1997,-0.5681,0.8108,-0.284,0.129,-0.181,-11.38,-34.79,0.8331,0.2297,0.5238,-0.207,-0.040,0.036,-55.33,23.51,0.06,-2.08,-2.14
4283,1467.47,1502.12,1481.98,0.0554,0.0381,1.1958,0.005,-0.046,-0.071,-2.82,1.80,0.1953,-0.5703,0.8169,-0.177,0.007,-0.181,-11.38,-34.80,0.8328,0.2283,0.5242,-0.100,0.250,0.250,-55.33,23.51,0.06,-2.08,-2.14
4308,1419.93,1417.51,1433.63,0.0586,0.0415,1.2039,0.005,-0.077,0.051,-2.83,1.81,0.2007,-0.5674,0.8252,0.449,-0.161,-0.349,-11.38,-34.78,0.8356,0.2253,0.5209,-0.146,-0.009,0.280,-55.34,23.50,0.06,-2.08,-2.14
4322,1419.93,1444.10,1449.74,0.0581,0.0398,1.1995,-0.056,-0.031,0.005,-2.82,1.81,0.2026,-0.5659,0.8171,-0.406,-0.009,-0.059,-11.38,-34.78,0.8330,0.2252,0.5227,-0.253,0.281,-0.086,-55.34,23.49,0.06,-2.08,-2.15
4347,1467.47,1523.88,1465.05,0.0596,0.0415,1.1973,-0.040,0.045,-0.010,-2.82,1.81,0.1970,-0.5664,0.8152,0.373,-0.009,-0.379,-11.38,-34.77,0.8325,0.2252,0.5234,0.068,0.327,-0.483,-55.34,23.49,0.06,-2.09,-2.15
4361,1431.21,1452.97,1432.01,0.0586,0.0356,1.1929,-0.010,-0.046,0.020,-2.82,1.81,0.2019,-0.5671,0.8188,0.419,-0.299,-0.440,-11.39,-34.77,0.8346,0.2264,0.5229,-0.085,0.220,-0.559,-55.34,23.49,0.06,-2.09,-2.15
4386,1467.47,1494.87,1478.75,0.0605,0.0381,1.1987,0.005,0.030,-0.010,-2.83,1.81,0.1982,-0.5693,0.8130,-0.223,0.175,-0.043,-11.38,-34.78,0.8331,0.2261,0.5187,-0.085,0.510,-0.681,-55.34,23.49,0.06,-2.09,-2.15
4400,1469.08,1524.69,1487.62,0.0620,0.0391,1.1956,-0.117,0.061,-0.056,-2.83,1.81,0.1946,-0.5667,0.8135,0.220,-0.314,-0.349,-11.38,-34.78,0.8307,0.2269,0.5278,0.220,0.571,-0.666,-55.33,23.49,0.06,-2.09,-2.15
4425,1425.57,1434.43,1433.63,0.0593,0.0410,1.1980,0.005,0.015,-0.071,-2.83,1.81,0.1985,-0.5684,0.8213,-0.039,0.266,-0.196,-11.37,-34.78,0.8302,0.2299,0.5249,-0.100,0.388,-0.407,-55.32,23.49,0.06,-2.09,-2.15
4439,1448.13,1431.21,1448.13,0.0608,0.0354,1.1980,-0.010,-0.000,0.020,-2.83,1.81,0.1970,-0.5684,0.8164,-0.207,-0.039,-0.105,-11.37,-34.78,0.8342,0.2267,0.5253,0.068,0.204,-0.437,-55.32,23.48,0.06,-2.09,-2.15
4464,1470.70,1509.38,1457.00,0.0601,0.0374,1.1990,-0.025,-0.016,0.005,-2.83,1.81,0.2002,-0.5669,0.8206,0.495,0.022,-0.334,-11.37,-34.76,0.8292,0.2323,0.5217,-0.054,0.266,-0.040,-55.32,23.49,0.07,-2.09,-2.15
4478,1440.07,1486.81,1432.82,0.0603,0.0364,1.1960,-0.040,-0.077,0.051,-2.83,1.81,0.1990,-0.5725,0.8164,-0.513,0.129,-0.135,-11.36,-34.78,0.8344,0.2296,0.5214,-0.100,0.021,0.067,-55.33,23.50,0.07,-2.09,-2.16
4503,1446.52,1482.78,1484.40,0.0603,0.0359,1.1968,0.021,-0.016,0.066,-2.83,1.80,0.1980,-0.5684,0.8184,0.541,-0.207,-0.486,-11.37,-34.76,0.8313,0.2269,0.5188,-0.115,0.021,0.143,-55.33,23.50,0.07,-2.09,-2.16
4517,1465.86,1501.32,1483.59,0.0576,0.0376,1.1951,0.005,-0.092,-0.056,-2.83,1.80,0.2019,-0.5691,0.8142,0.144,-0.192,-0.257,-11.37,-34.77,0.8357,0.2258,0.5168,-0.085,0.235,0.143,-55.34,23.50,0.07,-2.09,-2.16
4541,1428.79,1429.60,1462.64,0.0593,0.0354,1.1936,0.036,0.091,0.097,-2.83,1.80,0.1960,-0.5662,0.8093,0.281,0.144,-0.196,-11.36,-34.76,0.8324,0.2249,0.5193,-0.176,0.266,-0.254,-55.35,23.49,0.07,-2.09,-2.16
4556,1427.18,1401.39,1444.10,0.0596,0.0361,1.1956,-0.025,0.030,0.081,-2.83,1.80,0.1963,-0.5681,0.8196,0.525,-0.253,-0.349,-11.36,-34.76,0.8341,0.2225,0.5237,-0.115,0.357,-0.498,-55.35,23.48,0.07,-2.09,-2.17
4570,1432.01,1462.64,1482.78,0.0586,0.0405,1.1926,-0.040,0.015,0.066,-2.83,1.80,0.2014,-0.5708,0.8157,-0.146,-0.115,-0.150,-11.37,-34.76,0.8313,0.2288,0.5229,0.068,0.327,-0.681,-55.35,23.48,0.07,-2.09,-2.17
4595,1431.21,1481.98,1451.36,0.0576,0.0391,1.1963,0.097,0.015,0.051,-2.83,1.81,0.1973,-0.5710,0.8098,0.235,-0.085,-0.288,-11.37,-34.77,0.8328,0.2274,0.5229,-0.009,0.281,-0.575,-55.34,23.48,0.07,-2.10,-2.17
4609,1423.96,1441.69,1442.49,0.0610,0.0381,1.1885,-0.040,-0.046,-0.010,-2.83,1.81,0.2002,-0.5706,0.8188,0.403,-0.436,-0.471,-11.37,-34.76,0.8323,0.2286,0.5219,0.114,0.495,-0.590,-55.34,23.49,0.07,-2.10,-2.17
4634,1484.40,1490.04,1500.51,0.0605,0.0408,1.2036,0.082,-0.107,-0.010,-2.83,1.81,0.1987,-0.5684,0.8113,-0.299,0.159,0.002,-11.37,-34.77,0.8307,0.2306,0.5244,-0.009,0.540,-0.300,-55.33,23.49,0.08,-2.10,-2.17
4649,1470.70,1532.75,1484.40,0.0593,0.0400,1.2007,-0.010,-0.046,0.020,-2.84,1.81,0.1978,-0.5681,0.8105,0.174,-0.299,-0.440,-11.37,-34.78,0.8345,0.2281,0.5247,-0.054,0.159,-0.330,-55.33,23.49,0.08,-2.10,-2.17
4673,1398.97,1413.48,1440.88,0.0586,0.0349,1.1946,0.051,-0.000,-0.010,-2.83,1.81,0.1958,-0.5679,0.8125,0.098,0.251,-0.120,-11.36,-34.78,0.8274,0.2273,0.5259,-0.207,0.052,-0.239,-55.33,23.49,0.08,-2.10,-2.17
4688,1407.03,1431.21,1448.94,0.0581,0.0400,1.1914,-0.010,0.061,-0.025,-2.83,1.81,0.1997,-0.5669,0.8093,-0.177,0.007,0.002,-11.36,-34.78,0.8350,0.2273,0.5223,-0.207,-0.025,-0.010,-55.34,23.48,0.08,-2.10,-2.17
4712,1466.67,1491.65,1470.70,0.0605,0.0391,1.1970,0.005,0.030,-0.148,-2.83,1.82,0.1975,-0.5664,0.8162,0.281,-0.192,-0.395,-11.36,-34.78,0.8325,0.2271,0.5173,-0.131,0.067,0.067,-55.35,23.49,0.08,-2.10,-2.18
4727,1426.37,1445.71,1437.66,0.0574,0.0356,1.1941,-0.010,-0.062,-0.056,-2.83,1.81,0.2002,-0.5674,0.8145,-0.543,-0.054,0.018,-11.37,-34.79,0.8339,0.2231,0.5215,-0.115,0.311,0.036,-55.35,23.48,0.08,-2.10,-2.18
4751,1464.25,1508.57,1506.15,0.0586,0.0359,1.1936,0.036,0.076,-0.117,-2.83,1.81,0.1997,-0.5708,0.8113,0.693,-0.131,-0.288,-11.37,-34.78,0.8323,0.2250,0.5173,-0.009,0.266,-0.269,-55.36,23.48,0.08,-2.10,-2.18
4766,1472.31,1534.36,1526.30,0.0623,0.0371,1.1975,0.082,-0.000,0.051,-2.83,1.81,0.2019,-0.5676,0.8108,0.296,-0.192,-0.318,-11.37,-34.78,0.8315,0.2245,0.5262,-0.054,0.342,-0.483,-55.35,23.47,0.08,-2.10,-2.18
4790,1406.23,1394.14,1415.90,0.0618,0.0417,1.1992,-0.010,-0.153,-0.087,-2.84,1.82,0.1968,-0.5696,0.8186,-0.116,0.068,-0.135,-11.37,-34.78,0.8315,0.2274,0.5240,0.068,0.449,-0.788,-55.35,23.47,0.08,-2.10,-2.18
4805,1431.21,1420.73,1431.21,0.0603,0.0352,1.2007,-0.056,-0.031,0.020,-2.84,1.81,0.2012,-0.5659,0.8203,0.602,-0.467,-0.563,-11.38,-34.77,0.8322,0.2268,0.5220,-0.024,0.479,-0.636,-55.34,23.47,0.08,-2.10,-2.18
4829,1458.61,1495.68,1496.48,0.0598,0.0352,1.1970,0.036,-0.062,-0.163,-2.84,1.81,0.1987,-0.5715,0.8201,-0.345,0.327,-0.013,-11.37,-34.78,0.8341,0.2275,0.5232,0.053,0.418,-0.513,-55.34,23.47,0.08,-2.10,-2.18
4844,1438.46,1449.74,1423.96,0.0569,0.0376,1.1946,0.067,0.030,0.081,-2.84,1.81,0.2002,-0.5688,0.8201,0.174,-0.176,-0.303,-11.37,-34.78,0.8308,0.2285,0.5249,-0.176,0.388,-0.269,-55.34,23.47,0.08,-2.10,-2.18
4868,1466.67,1485.20,1481.98,0.0598,0.0356,1.1931,-0.010,0.076,0.036,-2.84,1.81,0.2021,-0.5657,0.8152,0.006,-0.009,-0.150,-11.37,-34.78,0.8351,0.2296,0.5270,-0.131,0.281,-0.055,-55.33,23.47,0.08,-2.10,-2.18
4883,1500.51,1543.22,1504.54,0.0591,0.0366,1.1941,0.036,0.106,0.036,-2.84,1.81,0.1975,-0.5720,0.8135,-0.253,-0.039,-0.150,-11.37,-34.79,0.8358,0.2272,0.5234,-0.207,-0.009,0.021,-55.34,23.47,0.08,-2.10,-2.18
4907,1429.60,1404.62,1401.39,0.0623,0.0359,1.1965,0.021,-0.000,-0.087,-2.84,1.81,0.1982,-0.5718,0.8127,0.648,-0.192,-0.440,-11.37,-34.78,0.8303,0.2275,0.5260,-0.192,0.159,0.051,-55.34,23.46,0.08,-2.10,-2.18
4922,1436.04,1407.84,1407.84,0.0615,0.0366,1.1975,0.021,-0.123,0.005,-2.84,1.81,0.2004,-0.5696,0.8171,-0.055,-0.009,-0.150,-11.37,-34.78,0.8323,0.2249,0.5219,-0.192,0.266,0.021,-55.34,23.45,0.09,-2.10,-2.18
4946,1455.38,1487.62,1459.41,0.0569,0.0396,1.1946,-0.040,0.030,-0.087,-2.84,1.81,0.1931,-0.5671,0.8167,0.190,-0.085,-0.395,-11.37,-34.78,0.8319,0.2246,0.5209,-0.115,0.250,-0.284,-55.34,23.45,0.09,-2.10,-2.18
4961,1423.15,1448.13,1431.21,0.0618,0.0415,1.2019,0.005,0.061,-0.010,-2.84,1.81,0.2002,-0.5701,0.8152,0.556,-0.390,-0.547,-11.37,-34.77,0.8339,0.2249,0.5203,-0.238,0.433,-0.284,-55.34,23.44,0.09,-2.10,-2.18
4985,1466.67,1471.50,1488.42,0.0603,0.0366,1.1987,-0.025,-0.046,-0.071,-2.84,1.81,0.1938,-0.5732,0.8142,-0.375,0.495,0.109,-11.35,-34.79,0.8344,0.2260,0.5204,0.190,0.571,-0.681,-55.34,23.45,0.09,-2.10,-2.18
4999,1467.47,1539.19,1488.42,0.0598,0.0361,1.2014,-0.056,-0.000,0.020,-2.84,1.81,0.2000,-0.5754,0.8110,0.602,-0.299,-0.456,-11.36,-34.79,0.8336,0.2286,0.5251,0.053,0.479,-0.758,-55.34,23.45,0.09,-2.10,-2.19
5024,1432.82,1394.14,1414.29,0.0645,0.0356,1.1963,0.036,0.076,0.051,-2.85,1.81,0.1978,-0.5688,0.8235,-0.268,0.236,0.033,-11.35,-34.79,0.8342,0.2279,0.5236,-0.039,0.510,-0.636,-55.33,23.45,0.09,-2.09,-2.19
5038,1433.63,1435.24,1436.85,0.0581,0.0383,1.1973,0.021,0.045,-0.056,-2.84,1.81,0.1941,-0.5681,0.8096,-0.253,-0.024,-0.105,-11.34,-34.80,0.8352,0.2297,0.5239,0.114,0.296,-0.559,-55.33,23.46,0.09,-2.09,-2.19
5053,1473.92,1461.83,1474.73,0.0564,0.0364,1.2031,0.005,-0.031,0.066,-2.84,1.81,0.2002,-0.5708,0.8171,0.724,-0.283,-0.501,-11.35,-34.80,0.8334,0.2296,0.5240,-0.253,0.128,-0.208,-55.33,23.46,0.09,-2.09,-2.19
5078,1419.93,1465.86,1444.91,0.0598,0.0359,1.1995,-0.040,-0.000,0.081,-2.84,1.80,0.2009,-0.5693,0.8115,-0.482,0.144,-0.013,-11.35,-34.81,0.8337,0.2288,0.5244,-0.146,0.189,0.036,-55.33,23.46,0.10,-2.09,-2.19
5092,1417.51,1441.69,1448.13,0.0591,0.0378,1.1943,-0.040,0.061,-0.010,-2.84,1.80,0.1995,-0.5725,0.8125,0.067,-0.161,-0.272,-11.35,-34.82,0.8348,0.2258,0.5267,-0.054,0.189,0.204,-55.33,23.45,0.10,-2.09,-2.19
5116,1475.53,1520.66,1517.44,0.0613,0.0359,1.1960,-0.056,-0.031,-0.010,-2.84,1.80,0.1968,-0.5676,0.8145,-0.116,-0.070,-0.135,-11.35,-34.82,0.8331,0.2244,0.5177,-0.115,0.174,-0.010,-55.34,23.45,0.10,-2.09,-2.19
5131,1457.00,1538.39,1494.07,0.0566,0.0386,1.1975,-0.040,-0.016,0.081,-2.84,1.80,0.1958,-0.5730,0.8098,-0.314,0.129,-0.043,-11.34,-34.84,0.8351,0.2229,0.5184,-0.146,0.250,-0.239,-55.35,23.44,0.10,-2.09,-2.19
5156,1432.01,1431.21,1429.60,0.0615,0.0366,1.1960,-0.025,0.045,-0.132,-2.84,1.80,0.1963,-0.5706,0.8164,0.632,-0.192,-0.364,-11.34,-34.82,0.8312,0.2264,0.5189,0.007,0.296,-0.575,-55.35,23.45,0.10,-2.09,-2.20
5170,1430.40,1471.50,1459.41,0.0610,0.0396,1.1973,-0.040,-0.123,-0.087,-2.84,1.80,0.1997,-0.5664,0.8193,0.037,-0.009,-0.120,-11.34,-34.82,0.8347,0.2257,0.5190,-0.131,0.204,-0.407,-55.36,23.45,0.10,-2.09,-2.20
5195,1448.94,1473.11,1443.30,0.0574,0.0403,1.1956,0.021,-0.031,0.097,-2.84,1.80,0.1987,-0.5688,0.8125,0.052,-0.222,-0.379,-11.35,-34.82,0.8358,0.2288,0.5233,-0.115,0.281,-0.513,-55.36,23.45,0.10,-2.10,-2.20
5209,1427.99,1406.23,1443.30,0.0579,0.0403,1.2041,-0.025,-0.046,0.036,-2.84,1.80,0.1980,-0.5706,0.8142,0.296,-0.573,-0.364,-11.35,-34.82,0.8336,0.2261,0.5211,0.007,0.556,-0.513,-55.36,23.45,0.10,-2.10,-2.20
5233,1452.16,1514.21,1465.05,0.0608,0.0391,1.1978,0.021,0.015,-0.010,-2.84,1.81,0.1990,-0.5710,0.8108,-0.284,0.266,-0.013,-11.35,-34.83,0.8345,0.2269,0.5245,0.098,0.464,-0.529,-55.35,23.45,0.11,-2.10,-2.20
5248,1459.41,1501.32,1468.28,0.0574,0.0381,1.1975,0.021,-0.062,-0.025,-2.84,1.81,0.1990,-0.5740,0.8140,0.464,-0.253,-0.318,-11.35,-34.84,0.8362,0.2291,0.5243,0.022,0.464,-0.636,-55.35,23.45,0.11,-2.10,-2.20
5272,1433.63,1436.04,1456.19,0.0601,0.0386,1.1938,0.036,-0.031,-0.041,-2.84,1.81,0.1992,-0.5657,0.8198,0.022,0.220,-0.074,-11.34,-34.83,0.8315,0.2325,0.5190,-0.222,0.204,-0.269,-55.35,23.46,0.11,-2.10,-2.20
5287,1452.97,1452.97,1494.07,0.0586,0.0339,1.2014,-0.071,0.091,-0.071,-2.84,1.80,0.2002,-0.5720,0.8186,-0.284,-0.054,-0.074,-11.34,-34.84,0.8333,0.2290,0.5225,-0.192,0.037,-0.071,-55.35,23.46,0.11,-2.10,-2.20
5311,1452.16,1457.00,1462.64,0.0596,0.0376,1.1924,-0.010,0.045,0.097,-2.84,1.80,0.1982,-0.5686,0.8193,0.632,-0.146,-0.471,-11.35,-34.82,0.8337,0.2296,0.5248,-0.222,0.052,0.250,-55.35,23.46,0.11,-2.10,-2.21
5326,1433.63,1436.85,1464.25,0.0630,0.0371,1.1975,0.005,-0.062,-0.025,-2.84,1.80,0.2009,-0.5701,0.8157,-0.284,-0.070,-0.028,-11.35,-34.83,0.8292,0.2249,0.5227,-0.192,0.281,0.235,-55.35,23.45,0.11,-2.10,-2.21
5350,1491.65,1505.35,1491.65,0.0615,0.0339,1.1970,-0.010,-0.000,-0.071,-2.85,1.80,0.2002,-0.5708,0.8162,0.327,-0.192,-0.364,-11.35,-34.82,0.8352,0.2228,0.5209,-0.039,0.403,-0.055,-55.35,23.45,0.11,-2.10,-2.21
5365,1467.47,1520.66,1493.26,0.0596,0.0342,1.1990,-0.040,-0.092,0.051,-2.85,1.80,0.1958,-0.5693,0.8164,0.266,-0.283,-0.364,-11.35,-34.82,0.8298,0.2258,0.5237,-0.009,0.266,-0.590,-55.35,23.44,0.11,-2.10,-2.21
5389,1428.79,1434.43,1448.13,0.0601,0.0354,1.1958,0.036,0.015,0.097,-2.85,1.79,0.1953,-0.5698,0.8125,0.022,0.251,-0.043,-11.34,-34.82,0.8315,0.2246,0.5201,0.083,0.495,-0.865,-55.35,23.44,0.11,-2.10,-2.21
5404,1457.00,1462.64,1486.81,0.0593,0.0349,1.1973,-0.040,-0.000,-0.056,-2.85,1.79,0.1970,-0.5720,0.8132,0.709,-0.344,-0.410,-11.34,-34.82,0.8329,0.2263,0.5226,0.037,0.296,-0.865,-55.35,23.44,0.11,-2.10,-2.21
5428,1441.69,1492.45,1478.75,0.0552,0.0398,1.1985,-0.086,0.030,-0.010,-2.84,1.79,0.2012,-0.5679,0.8215,-0.330,0.205,0.018,-11.34,-34.82,0.8314,0.2328,0.5243,-0.100,0.495,-0.391,-55.34,23.45,0.11,-2.10,-2.21
5443,1444.10,1443.30,1469.89,0.0564,0.0374,1.1936,0.005,-0.046,-0.010,-2.84,1.79,0.1997,-0.5679,0.8154,-0.299,-0.222,-0.074,-11.34,-34.83,0.8350,0.2307,0.5220,0.037,0.479,-0.239,-55.34,23.46,0.11,-2.10,-2.21
5467,1483.59,1511.79,1457.00,0.0598,0.0361,1.1975,-0.025,-0.046,-0.025,-2.84,1.79,0.2004,-0.5688,0.8174,0.434,-0.100,-0.303,-11.35,-34.82,0.8331,0.2289,0.5271,-0.054,0.204,-0.116,-55.34,23.46,0.11,-2.10,-2.21
5481,1483.59,1524.69,1469.89,0.0596,0.0364,1.1960,-0.025,-0.016,0.051,-2.84,1.79,0.1973,-0.5693,0.8223,-0.162,0.220,-0.013,-11.34,-34.82,0.8345,0.2294,0.5256,-0.131,0.113,-0.132,-55.34,23.46,0.11,-2.10,-2.21
5506,1432.01,1435.24,1442.49,0.0576,0.0378,1.1943,-0.071,0.076,0.081,-2.84,1.79,0.1973,-0.5698,0.8103,0.632,-0.161,-0.471,-11.34,-34.81,0.8363,0.2281,0.5216,-0.054,-0.009,-0.178,-55.35,23.46,0.11,-2.10,-2.21
5520,1447.33,1441.69,1457.80,0.0601,0.0383,1.1960,-0.010,0.061,-0.041,-2.84,1.79,0.1987,-0.5664,0.8132,0.067,-0.070,-0.211,-11.34,-34.81,0.8326,0.2299,0.5204,-0.283,0.067,-0.071,-55.35,23.46,0.11,-2.10,-2.21
5545,1440.07,1461.03,1465.86,0.0583,0.0393,1.1980,-0.071,0.137,-0.041,-2.83,1.79,0.1980,-0.5715,0.8135,0.190,0.098,-0.364,-11.34,-34.81,0.8336,0.2258,0.5258,-0.131,0.327,-0.025,-55.35,23.46,0.11,-2.10,-2.21
5559,1435.24,1455.38,1438.46,0.0608,0.0393,1.1931,0.067,0.076,-0.041,-2.84,1.79,0.2056,-0.5688,0.8169,0.541,-0.192,-0.471,-11.35,-34.80,0.8330,0.2255,0.5251,-0.146,0.510,-0.101,-55.34,23.45,0.11,-2.10,-2.21
5584,1461.03,1500.51,1495.68,0.0579,0.0374,1.1958,0.051,0.030,0.005,-2.83,1.79,0.1965,-0.5718,0.8098,-0.436,0.205,0.140,-11.34,-34.82,0.8344,0.2249,0.5209,-0.070,0.464,-0.513,-55.34,23.45,0.11,-2.10,-2.21
5598,1490.04,1522.27,1482.78,0.0603,0.0378,1.1895,-0.040,0.045,-0.010,-2.83,1.79,0.1958,-0.5706,0.8186,0.327,-0.161,-0.318,-11.34,-34.82,0.8347,0.2256,0.5223,-0.009,0.464,-0.773,-55.34,23.44,0.11,-2.10,-2.21
5623,1422.34,1421.54,1454.58,0.0608,0.0378,1.1946,0.051,0.015,-0.087,-2.83,1.79,0.1990,-0.5657,0.8159,0.098,0.053,-0.257,-11.34,-34.81,0.8368,0.2283,0.5231,-0.085,0.540,-0.727,-55.34,23.45,0.11,-2.10,-2.21
5637,1434.43,1444.91,1456.19,0.0579,0.0371,1.1936,-0.071,0.015,0.005,-2.83,1.79,0.2000,-0.5720,0.8147,-0.177,0.297,-0.089,-11.33,-34.82,0.8296,0.2306,0.5217,-0.009,0.266,-0.620,-55.34,23.45,0.11,-2.10,-2.21
5662,1452.97,1481.17,1445.71,0.0583,0.0388,1.1978,-0.040,0.015,-0.056,-2.83,1.79,0.1980,-0.5671,0.8176,0.357,-0.360,-0.425,-11.34,-34.81,0.8345,0.2273,0.5245,-0.146,0.388,-0.178,-55.33,23.45,0.11,-2.10,-2.21
5676,1398.17,1454.58,1428.79,0.0598,0.0374,1.2012,0.067,-0.046,-0.132,-2.83,1.79,0.2009,-0.5684,0.8130,-0.238,0.220,0.018,-11.34,-34.82,0.8328,0.2294,0.5239,-0.039,0.327,-0.071,-55.33,23.45,0.11,-2.10,-2.21
5701,1457.80,1495.68,1477.95,0.0601,0.0369,1.2007,0.051,-0.000,0.051,-2.83,1.79,0.1960,-0.5698,0.8201,0.480,-0.176,-0.379,-11.34,-34.81,0.8314,0.2278,0.5249,-0.131,0.021,0.036,-55.33,23.45,0.11,-2.10,-2.21
5716,1488.42,1537.58,1482.78,0.0642,0.0383,1.1946,0.005,0.045,0.081,-2.84,1.79,0.1982,-0.5708,0.8154,0.693,-0.253,-0.486,-11.34,-34.80,0.8319,0.2274,0.5223,-0.268,0.006,0.113,-55.34,23.45,0.11,-2.10,-2.21
5730,1465.05,1519.05,1472.31,0.0613,0.0359,1.1917,-0.056,-0.016,-0.010,-2.84,1.79,0.1956,-0.5691,0.8232,-0.253,0.220,-0.166,-11.33,-34.80,0.8334,0.2255,0.5198,-0.131,-0.055,-0.055,-55.35,23.45,0.12,-2.10,-2.21
5755,1433.63,1449.74,1454.58,0.0596,0.0388,1.1985,0.067,-0.107,-0.010,-2.84,1.80,0.1978,-0.5725,0.8203,0.648,-0.360,-0.517,-11.34,-34.79,0.8330,0.2253,0.5236,-0.146,0.082,-0.178,-55.35,23.44,0.12,-2.10,-2.21
5769,1465.05,1457.80,1462.64,0.0613,0.0359,1.1934,-0.025,0.045,0.097,-2.84,1.79,0.2004,-0.5693,0.8240,0.296,-0.222,-0.410,-11.34,-34.78,0.8325,0.2241,0.5232,-0.070,0.540,-0.193,-55.35,23.43,0.12,-2.10,-2.22
5794,1427.99,1453.77,1435.24,0.0637,0.0400,1.1926,-0.010,0.122,-0.010,-2.85,1.80,0.1921,-0.5725,0.8096,-0.055,-0.054,-0.150,-11.34,-34.79,0.8352,0.2251,0.5195,0.098,0.586,-0.559,-55.35,23.43,0.12,-2.10,-2.22
5808,1421.54,1405.42,1405.42,0.0591,0.0381,1.2019,0.036,-0.000,0.020,-2.84,1.80,0.2000,-0.5686,0.8181,0.785,-0.436,-0.440,-11.34,-34.78,0.8315,0.2233,0.5200,-0.009,0.525,-0.697,-55.35,23.43,0.12,-2.10,-2.22
5833,1468.28,1498.10,1486.01,0.0620,0.0374,1.1997,-0.056,-0.062,0.005,-2.85,1.80,0.2002,-0.5698,0.8220,-0.360,0.312,0.079,-11.33,-34.79,0.8340,0.2300,0.5234,0.037,0.433,-0.773,-55.34,23.44,0.12,-2.10,-2.22
5847,1485.20,1507.77,1471.50,0.0552,0.0393,1.1929,0.021,-0.016,0.097,-2.84,1.80,0.2002,-0.5679,0.8052,0.220,-0.039,-0.303,-11.34,-34.79,0.8307,0.2299,0.5254,0.007,0.250,-0.636,-55.34,23.44,0.12,-2.10,-2.22
5862,1430.40,1464.25,1457.00,0.0586,0.0413,1.1982,-0.056,-0.031,-0.025,-2.84,1.80,0.1973,-0.5676,0.8188,0.754,-0.344,-0.456,-11.34,-34.78,0.8353,0.2316,0.5232,-0.161,0.311,-0.223,-55.34,23.45,0.12,-2.10,-2.22
5886,1446.52,1447.33,1477.95,0.0591,0.0417,1.1975,0.021,0.106,-0.087,-2.84,1.80,0.1982,-0.5713,0.8149,-0.528,0.098,-0.105,-11.34,-34.80,0.8351,0.2281,0.5240,-0.085,0.327,0.051,-55.34,23.45,0.12,-2.10,-2.22
5901,1473.92,1502.93,1494.87,0.0608,0.0378,1.1946,-0.056,0.045,0.020,-2.84,1.80,0.1980,-0.5703,0.8123,0.052,-0.131,-0.196,-11.34,-34.80,0.8329,0.2284,0.5227,-0.146,0.220,0.143,-55.34,23.45,0.12,-2.10,-2.22
5926,1430.40,1448.13,1444.91,0.0613,0.0366,1.1987,0.051,-0.046,0.051,-2.84,1.80,0.2017,-0.5676,0.8149,0.251,-0.131,-0.227,-11.34,-34.80,0.8348,0.2251,0.5228,-0.390,0.128,0.051,-55.34,23.44,0.12,-2.10,-2.22
5940,1443.30,1431.21,1439.27,0.0576,0.0378,1.1963,-0.025,-0.046,-0.041,-2.84,1.80,0.1956,-0.5703,0.8164,-0.299,0.343,0.094,-11.33,-34.81,0.8285,0.2268,0.5219,-0.115,0.082,-0.086,-55.35,23.44,0.12,-2.10,-2.22
5965,1481.98,1536.78,1488.42,0.0601,0.0376,1.1987,0.112,-0.077,0.127,-2.85,1.81,0.2017,-0.5691,0.8198,0.556,-0.467,-0.440,-11.35,-34.79,0.8341,0.2244,0.5168,-0.268,0.159,-0.239,-55.35,23.43,0.12,-2.10,-2.22
5979,1440.07,1508.57,1457.00,0.0623,0.0378,1.1946,0.021,-0.046,0.020,-2.85,1.81,0.1946,-0.5662,0.8191,-0.223,0.053,-0.120,-11.34,-34.79,0.8300,0.2244,0.5181,-0.131,0.433,-0.407,-55.36,23.43,0.12,-2.10,-2.22
6004,1423.15,1423.96,1422.34,0.0586,0.0376,1.2051,0.036,-0.031,0.051,-2.85,1.81,0.2029,-0.5718,0.8174,0.449,-0.375,-0.410,-11.35,-34.78,0.8348,0.2272,0.5195,0.114,0.617,-0.544,-55.35,23.43,0.12,-2.10,-2.22
6018,1465.86,1475.53,1436.85,0.0596,0.0369,1.2004,-0.056,-0.046,0.005,-2.85,1.81,0.2043,-0.5708,0.8167,0.754,-0.131,-0.471,-11.36,-34.78,0.8324,0.2295,0.5243,-0.039,0.540,-0.620,-55.35,23.44,0.12,-2.10,-2.22
6043,1404.62,1390.11,1394.14,0.0620,0.0388,1.1953,-0.025,0.061,-0.102,-2.85,1.81,0.1948,-0.5713,0.8127,-0.268,0.129,0.079,-11.35,-34.79,0.8345,0.2291,0.5237,-0.054,0.357,-0.681,-55.34,23.44,0.12,-2.09,-2.22
6057,1394.95,1379.63,1403.81,0.0586,0.0383,1.1936,0.021,0.030,-0.041,-2.85,1.81,0.1951,-0.5693,0.8162,0.663,-0.192,-0.440,-11.35,-34.78,0.8324,0.2322,0.5249,-0.024,0.189,-0.651,-55.34,23.45,0.12,-2.09,-2.22
6082,1452.97,1481.98,1436.85,0.0586,0.0364,1.1975,0.021,-0.031,-0.071,-2.85,1.81,0.1982,-0.5698,0.8215,-0.314,0.007,-0.074,-11.34,-34.79,0.8335,0.2305,0.5236,-0.161,0.113,0.051,-55.34,23.45,0.12,-2.09,-2.22
6096,1414.29,1441.69,1420.73,0.0588,0.0391,1.2031,-0.025,-0.138,0.005,-2.85,1.81,0.1970,-0.5747,0.8115,-0.024,-0.146,-0.089,-11.34,-34.80,0.8363,0.2294,0.5186,-0.176,0.159,0.296,-55.35,23.46,0.12,-2.09,-2.22
6121,1400.59,1350.62,1381.25,0.0583,0.0366,1.1926,-0.056,-0.000,0.112,-2.85,1.80,0.2026,-0.5657,0.8250,0.067,-0.360,-0.196,-11.35,-34.79,0.8348,0.2260,0.5184,-0.146,0.372,0.311,-55.35,23.45,0.12,-2.09,-2.22
6135,1423.96,1422.34,1416.70,0.0588,0.0413,1.2009,0.005,-0.016,0.066,-2.85,1.81,0.2051,-0.5715,0.8098,-0.284,0.175,-0.043,-11.36,-34.80,0.8385,0.2244,0.5233,-0.131,0.204,0.082,-55.36,23.45,0.12,-2.09,-2.22
6160,1411.06,1457.00,1444.91,0.0581,0.0356,1.1943,-0.056,-0.016,0.143,-2.85,1.80,0.2012,-0.5732,0.8132,0.587,-0.192,-0.379,-11.36,-34.80,0.8303,0.2239,0.5215,0.114,0.143,-0.666,-55.36,23.45,0.12,-2.10,-2.22
6174,1428.79,1469.89,1464.25,0.0605,0.0361,1.1960,0.005,0.091,-0.010,-2.85,1.80,0.2017,-0.5662,0.8235,0.480,-0.039,-0.257,-11.37,-34.79,0.8342,0.2240,0.5198,-0.131,0.296,-0.742,-55.37,23.44,0.12,-2.10,-2.22
6198,1503.74,1615.75,1543.22,0.0608,0.0342,1.1907,-0.010,-0.031,0.020,-2.85,1.80,0.1953,-0.5703,0.8113,-0.101,-0.176,-0.242,-11.37,-34.79,0.8347,0.2244,0.5189,-0.085,0.220,-0.513,-55.37,23.44,0.12,-2.10,-2.22
6213,1534.36,1680.22,1598.02,0.0569,0.0361,1.1992,-0.040,-0.046,0.066,-2.85,1.80,0.1978,-0.5688,0.8174,0.388,-0.421,-0.395,-11.37,-34.79,0.8322,0.2277,0.5204,0.083,0.586,-0.269,-55.37,23.44,0.12,-2.10,-2.22
6237,1533.55,1559.34,1540.00,0.0576,0.0337,1.1978,0.021,-0.031,0.097,-2.85,1.79,0.1968,-0.5715,0.8093,-0.314,0.129,-0.059,-11.36,-34.81,0.8322,0.2273,0.5217,-0.161,0.510,-0.040,-55.36,23.44,0.12,-2.10,-2.22
6252,1473.92,1411.06,1440.88,0.0601,0.0349,1.1973,-0.010,-0.046,-0.117,-2.85,1.79,0.1975,-0.5715,0.8142,0.144,-0.085,-0.181,-11.36,-34.81,0.8337,0.2268,0.5198,-0.192,0.281,-0.162,-55.37,23.44,0.11,-2.10,-2.22
6276,1460.22,1572.23,1556.12,0.0574,0.0376,1.1973,0.143,0.015,0.066,-2.84,1.80,0.2000,-0.5676,0.8167,0.220,-0.329,-0.150,-11.37,-34.80,0.8396,0.2247,0.5219,-0.344,0.556,-0.468,-55.36,23.43,0.11,-2.10,-2.22
6291,1488.42,1627.03,1637.51,0.0610,0.0432,1.1958,0.067,0.106,0.066,-2.84,1.80,0.1953,-0.5708,0.8162,-1.215,0.892,0.476,-11.35,-34.82,0.8265,0.2275,0.5220,0.388,0.220,-0.788,-55.36,23.44,0.11,-2.10,-2.22
6305,1458.61,1475.53,1494.07,0.0586,0.0366,1.2046,-0.040,0.045,0.036,-2.84,1.80,0.1956,-0.5713,0.8147,1.060,-0.635,-0.593,-11.36,-34.81,0.8431,0.2279,0.5270,-0.115,0.189,-0.620,-55.37,23.44,0.11,-2.10,-2.22
6330,1469.08,1495.68,1465.05,0.0581,0.0386,1.1943,-0.010,-0.016,0.097,-2.84,1.80,0.1987,-0.5632,0.8164,-0.879,0.907,0.323,-11.33,-34.83,0.8206,0.2303,0.5222,0.159,0.342,-0.193,-55.36,23.45,0.11,-2.10,-2.22
6344,1443.30,1443.30,1441.69,0.0588,0.0339,1.2024,-0.208,0.045,-0.178,-2.84,1.79,0.1899,-0.5737,0.8118,-0.986,-0.146,0.079,-11.33,-34.85,0.8445,0.2288,0.5200,0.190,-0.101,0.082,-55.37,23.46,0.12,-2.11,-2.22
6369,1455.38,1452.97,1464.25,0.0591,0.0361,1.1968,-0.010,0.152,-0.102,-2.84,1.79,0.2070,-0.5625,0.8247,0.602,-0.039,-0.349,-11.33,-34.83,0.8245,0.2225,0.5212,-0.360,-0.040,0.189,-55.37,23.44,0.12,-2.11,-2.22
6383,1466.67,1531.94,1481.17,0.0598,0.0347,1.2031,-0.254,-0.000,-0.102,-2.84,1.79,0.1992,-0.5759,0.8167,-1.566,0.465,0.552,-11.33,-34.86,0.8409,0.2206,0.5220,0.282,0.098,-0.162,-55.39,23.43,0.12,-2.11,-2.23
6408,1382.86,1391.72,1423.96,0.0608,0.0391,1.2004,0.082,-0.000,-0.010,-2.84,1.79,0.2009,-0.5640,0.8120,1.823,-0.146,-0.822,-11.33,-34.81,0.8337,0.2250,0.5254,-0.100,0.174,-0.742,-55.39,23.43,0.12,-2.11,-2.23
6422,1419.12,1415.09,1431.21,0.0610,0.0369,1.2012,-0.025,0.045,-0.025,-2.84,1.79,0.2034,-0.5674,0.8152,-0.620,0.022,0.048,-11.34,-34.82,0.8351,0.2242,0.5177,0.007,0.449,-0.926,-55.39,23.43,0.12,-2.11,-2.23
6447,1461.03,1500.51,1485.20,0.0557,0.0371,1.1934,-0.071,-0.031,0.036,-2.84,1.79,0.1985,-0.5674,0.8091,0.724,0.297,-0.257,-11.33,-34.81,0.8363,0.2285,0.5227,0.190,0.433,-0.819,-55.39,23.43,0.12,-2.12,-2.24
6461,1429.60,1469.08,1455.38,0.0564,0.0435,1.1855,-0.147,-0.000,-0.132,-2.83,1.79,0.1982,-0.5649,0.8140,1.167,-0.650,-0.746,-11.34,-34.79,0.8333,0.2340,0.5237,-0.268,0.464,-0.254,-55.38,23.44,0.12,-2.12,-2.24
6486,1457.00,1440.07,1444.91,0.0571,0.0374,1.1968,0.051,0.030,-0.025,-2.83,1.79,0.1980,-0.5723,0.8147,-0.711,0.587,0.048,-11.32,-34.81,0.8411,0.2258,0.5215,-0.085,0.449,0.082,-55.38,23.44,0.12,-2.12,-2.24
6500,1457.00,1515.82,1462.64,0.0596,0.0361,1.1936,0.005,-0.000,0.112,-2.83,1.79,0.1978,-0.5698,0.8103,0.235,-0.497,-0.364,-11.33,-34.82,0.8311,0.2268,0.5248,-0.070,0.403,-0.025,-55.38,23.44,0.12,-2.12,-2.24
6515,1464.25,1525.49,1476.34,0.0588,0.0374,1.1914,-0.101,-0.000,0.081,-2.83,1.79,0.2073,-0.5691,0.8176,0.388,-0.757,-0.608,-11.35,-34.81,0.8356,0.2261,0.5239,-0.192,-0.101,-0.208,-55.39,23.43,0.12,-2.12,-2.24
6539,1427.18,1393.33,1401.39,0.0571,0.0334,1.1924,0.097,0.030,-0.010,-2.83,1.79,0.1953,-0.5696,0.8110,-0.238,0.663,0.094,-11.33,-34.82,0.8280,0.2255,0.5228,0.007,-0.040,-0.498,-55.39,23.43,0.12,-2.13,-2.24
6554,1415.90,1427.18,1430.40,0.0586,0.0356,1.1960,-0.101,0.015,-0.041,-2.83,1.79,0.1975,-0.5693,0.8140,0.602,-0.528,-0.410,-11.34,-34.82,0.8323,0.2310,0.5193,0.205,-0.254,-0.666,-55.40,23.45,0.12,-2.13,-2.25
6578,1425.57,1500.51,1464.25,0.0554,0.0398,1.1948,0.112,-0.092,-0.025,-2.83,1.79,0.2000,-0.5681,0.8242,-0.360,0.251,-0.013,-11.33,-34.82,0.8275,0.2297,0.5175,-0.268,0.311,0.128,-55.39,23.45,0.12,-2.13,-2.25
6593,1431.21,1451.36,1452.97,0.0557,0.0393,1.1929,-0.101,0.061,-0.056,-2.82,1.79,0.1948,-0.5723,0.8088,-1.093,-0.207,0.124,-11.33,-34.84,0.8387,0.2238,0.5215,0.190,0.495,0.082,-55.40,23.45,0.12,-2.13,-2.25
6618,1463.44,1532.75,1478.75,0.0596,0.0381,1.1992,0.112,-0.046,0.036,-2.82,1.79,0.2065,-0.5720,0.8188,1.167,-0.253,-0.761,-11.34,-34.82,0.8311,0.2256,0.5254,-0.329,0.479,-0.116,-55.39,23.43,0.12,-2.14,-2.25
6632,1468.28,1545.64,1505.35,0.0613,0.0396,1.1934,-0.056,0.091,0.020,-2.83,1.80,0.2024,-0.5706,0.8174,-0.894,0.266,0.247,-11.34,-34.83,0.8335,0.2198,0.5228,-0.192,0.235,-0.483,-55.39,23.42,0.12,-2.14,-2.25
6656,1432.82,1417.51,1431.21,0.0598,0.0396,1.1980,0.158,0.076,0.005,-2.82,1.80,0.1980,-0.5671,0.8223,1.258,-0.207,-0.578,-11.34,-34.80,0.8353,0.2281,0.5208,0.114,0.220,-1.078,-55.39,23.43,0.12,-2.14,-2.25
6671,1433.63,1426.37,1417.51,0.0591,0.0376,1.1909,0.067,0.045,0.005,-2.82,1.80,0.1985,-0.5664,0.8237,0.281,-0.451,-0.318,-11.35,-34.79,0.8300,0.2284,0.5194,-0.283,0.357,-0.636,-55.39,23.43,0.11,-2.14,-2.26
6685,1442.49,1490.84,1446.52,0.0571,0.0374,1.1958,0.067,0.015,0.081,-2.82,1.80,0.1985,-0.5698,0.8137,-0.864,0.388,0.155,-11.34,-34.80,0.8367,0.2311,0.5229,-0.085,0.617,-0.422,-55.39,23.44,0.11,-2.14,-2.26
6710,1429.60,1455.38,1427.18,0.0574,0.0388,1.1917,-0.071,-0.062,-0.148,-2.82,1.80,0.1938,-0.5674,0.8218,1.060,-0.650,-0.700,-11.35,-34.78,0.8340,0.2279,0.5217,0.129,0.601,0.082,-55.38,23.44,0.11,-2.14,-2.26
6724,1423.96,1395.75,1419.93,0.0588,0.0408,1.1980,-0.025,-0.016,0.081,-2.82,1.81,0.2043,-0.5688,0.8206,-0.223,-0.329,-0.181,-11.36,-34.78,0.8347,0.2271,0.5216,-0.222,0.113,0.311,-55.39,23.44,0.11,-2.14,-2.26
6749,1487.62,1547.25,1483.59,0.0608,0.0430,1.1929,0.051,0.030,-0.010,-2.82,1.81,0.1973,-0.5691,0.8069,-0.055,-0.115,-0.150,-11.36,-34.79,0.8320,0.2244,0.5243,-0.070,-0.009,-0.193,-55.39,23.43,0.11,-2.15,-2.25
6763,1466.67,1525.49,1494.87,0.0559,0.0354,1.1987,0.036,-0.000,0.081,-2.82,1.81,0.2019,-0.5693,0.8181,0.892,-0.573,-0.639,-11.37,-34.78,0.8368,0.2264,0.5215,0.098,-0.055,-0.559,-55.40,23.44,0.11,-2.15,-2.25
6788,1444.10,1425.57,1419.93,0.0593,0.0391,1.1912,-0.040,0.045,0.143,-2.82,1.81,0.1963,-0.5696,0.8108,-0.253,0.434,0.094,-11.35,-34.79,0.8286,0.2284,0.5206,-0.115,0.189,-0.315,-55.40,23.44,0.10,-2.15,-2.25
6802,1443.30,1456.19,1457.00,0.0593,0.0417,1.1978,0.036,-0.031,-0.056,-2.82,1.81,0.1943,-0.5696,0.8142,0.159,-0.329,-0.288,-11.35,-34.79,0.8347,0.2279,0.5184,0.037,0.601,-0.376,-55.40,23.44,0.10,-2.15,-2.25
6827,1417.51,1445.71,1442.49,0.0564,0.0361,1.2051,-0.071,-0.000,0.036,-2.82,1.81,0.1973,-0.5674,0.8213,-0.375,0.022,-0.120,-11.35,-34.80,0.8348,0.2264,0.5238,-0.131,0.693,-0.086,-55.39,23.44,0.10,-2.15,-2.25
6841,1411.06,1423.15,1409.45,0.0591,0.0403,1.2004,-0.147,0.091,0.005,-2.82,1.81,0.2014,-0.5725,0.8113,-0.940,0.129,0.063,-11.35,-34.82,0.8300,0.2252,0.5214,-0.222,0.281,-0.162,-55.39,23.44,0.10,-2.15,-2.25
6866,1485.20,1554.51,1523.08,0.0581,0.0393,1.1948,-0.056,0.030,0.081,-2.81,1.81,0.2000,-0.5645,0.8198,1.197,-0.268,-0.563,-11.36,-34.78,0.8329,0.2247,0.5215,0.068,-0.040,-0.636,-55.40,23.43,0.10,-2.15,-2.25
6880,1433.63,1534.36,1470.70,0.0583,0.0342,1.1960,-0.040,-0.031,0.066,-2.81,1.81,0.1985,-0.5679,0.8191,-0.467,0.083,-0.105,-11.35,-34.79,0.8350,0.2289,0.5195,-0.085,0.052,-0.636,-55.40,23.44,0.10,-2.16,-2.26
6905,1429.60,1395.75,1416.70,0.0608,0.0347,1.1965,-0.025,-0.016,0.005,-2.82,1.80,0.1982,-0.5732,0.8147,0.495,-0.146,-0.395,-11.36,-34.78,0.8339,0.2296,0.5237,0.022,0.357,-0.407,-55.40,23.45,0.10,-2.16,-2.26
6919,1448.94,1468.28,1449.74,0.0598,0.0381,1.1987,-0.025,-0.062,-0.010,-2.82,1.80,0.2000,-0.5652,0.8201,0.754,-0.558,-0.440,-11.36,-34.77,0.8325,0.2264,0.5245,0.022,0.556,-0.239,-55.39,23.44,0.10,-2.16,-2.25
6944,1434.43,1457.00,1452.97,0.0586,0.0398,1.1956,0.036,0.045,0.066,-2.82,1.81,0.1985,-0.5696,0.8076,-0.192,0.449,0.048,-11.35,-34.78,0.8330,0.2272,0.5240,-0.161,0.449,0.067,-55.38,23.44,0.10,-2.16,-2.25
6958,1425.57,1428.79,1401.39,0.0618,0.0403,1.1968,0.051,-0.000,-0.056,-2.82,1.81,0.2002,-0.5701,0.8159,0.541,-0.421,-0.471,-11.36,-34.78,0.8337,0.2274,0.5267,-0.192,0.098,-0.147,-55.38,23.44,0.09,-2.16,-2.25
6983,1446.52,1518.24,1480.37,0.0620,0.0347,1.1960,0.097,-0.016,-0.025,-2.82,1.81,0.1975,-0.5696,0.8208,-0.330,0.327,0.018,-11.35,-34.78,0.8329,0.2275,0.5192,-0.192,-0.040,-0.269,-55.39,23.44,0.09,-2.16,-2.25
6997,1477.95,1549.67,1504.54,0.0574,0.0352,1.1968,-0.040,-0.000,0.097,-2.82,1.81,0.1982,-0.5681,0.8113,-0.207,0.083,0.002,-11.35,-34.79,0.8337,0.2255,0.5181,-0.253,0.006,-0.254,-55.40,23.43,0.09,-2.16,-2.26
7022,1402.20,1391.72,1414.29,0.0605,0.0405,1.1926,0.005,-0.031,0.051,-2.82,1.81,0.2034,-0.5701,0.8159,0.739,-0.146,-0.471,-11.35,-34.78,0.8326,0.2263,0.5192,0.007,0.372,-0.284,-55.40,23.44,0.09,-2.16,-2.26
7036,1433.63,1457.00,1446.52,0.0593,0.0359,1.1980,-0.025,-0.031,-0.025,-2.82,1.81,0.1980,-0.5693,0.8171,-0.772,0.297,0.109,-11.35,-34.79,0.8328,0.2258,0.5204,-0.039,0.678,-0.269,-55.40,23.44,0.09,-2.16,-2.26
7061,1428.79,1480.37,1478.75,0.0601,0.0347,1.1885,0.097,-0.031,0.066,-2.83,1.81,0.1990,-0.5693,0.8125,0.770,-0.390,-0.608,-11.36,-34.78,0.8370,0.2250,0.5200,-0.100,0.479,-0.590,-55.40,23.43,0.09,-2.16,-2.26
7075,1427.99,1411.06,1423.15,0.0608,0.0408,1.1914,0.021,-0.046,-0.087,-2.83,1.81,0.2019,-0.5669,0.8169,0.434,-0.039,-0.288,-11.36,-34.77,0.8333,0.2271,0.5225,0.083,0.220,-0.636,-55.40,23.44,0.09,-2.16,-2.26
7100,1490.84,1542.42,1501.32,0.0593,0.0403,1.1919,-0.025,0.045,0.051,-2.83,1.81,0.1973,-0.5691,0.8115,0.159,0.114,-0.120,-11.35,-34.77,0.8378,0.2280,0.5204,-0.161,0.143,-0.376,-55.40,23.44,0.09,-2.16,-2.26
7114,1494.87,1557.73,1542.42,0.0603,0.0349,1.1992,0.051,-0.062,0.005,-2.83,1.81,0.1985,-0.5669,0.8198,0.816,-0.451,-0.593,-11.36,-34.76,0.8308,0.2288,0.5234,-0.115,0.189,-0.284,-55.40,23.44,0.09,-2.16,-2.26
7139,1431.21,1390.92,1414.29,0.0588,0.0371,1.1931,-0.056,0.076,0.112,-2.83,1.81,0.2012,-0.5703,0.8176,-0.818,0.251,0.155,-11.35,-34.78,0.8354,0.2279,0.5232,0.053,0.357,-0.025,-55.40,23.44,0.09,-2.16,-2.26
7153,1459.41,1419.93,1413.48,0.0562,0.0342,1.1985,-0.010,-0.153,0.081,-2.83,1.80,0.1956,-0.5759,0.8098,0.342,-0.009,-0.272,-11.35,-34.79,0.8328,0.2239,0.5209,-0.085,0.281,-0.086,-55.40,23.44,0.09,-2.16,-2.26
7168,1486.81,1499.71,1470.70,0.0579,0.0371,1.1963,0.036,-0.016,-0.010,-2.83,1.80,0.1997,-0.5710,0.8169,0.861,-0.299,-0.593,-11.35,-34.78,0.8373,0.2233,0.5203,-0.115,0.266,-0.055,-55.41,23.43,0.09,-2.16,-2.26
7193,1427.18,1409.45,1415.09,0.0610,0.0393,1.1943,-0.010,-0.046,0.036,-2.83,1.81,0.1985,-0.5703,0.8074,-0.497,0.297,-0.013,-11.35,-34.80,0.8320,0.2249,0.5225,-0.009,-0.192,-0.391,-55.42,23.43,0.10,-2.17,-2.26
7207,1410.26,1353.85,1385.27,0.0623,0.0344,1.1926,0.005,-0.016,-0.056,-2.83,1.80,0.1982,-0.5715,0.8132,0.296,-0.390,-0.349,-11.35,-34.80,0.8328,0.2290,0.5206,-0.146,0.174,-0.315,-55.42,23.43,0.10,-2.17,-2.26
7232,1445.71,1558.53,1518.24,0.0603,0.0410,1.1924,0.097,-0.107,0.097,-2.84,1.81,0.2000,-0.5706,0.8169,0.052,0.266,-0.135,-11.34,-34.80,0.8379,0.2258,0.5182,0.053,0.403,-0.208,-55.42,23.43,0.10,-2.17,-2.27
7246,1442.49,1520.66,1526.30,0.0601,0.0383,1.1980,-0.056,-0.016,-0.041,-2.84,1.81,0.2021,-0.5737,0.8147,-0.070,0.098,-0.074,-11.34,-34.81,0.8337,0.2267,0.5219,-0.100,0.556,-0.086,-55.42,23.43,0.10,-2.17,-2.27
7271,1431.21,1414.29,1419.12,0.0610,0.0378,1.2009,0.097,-0.000,0.036,-2.84,1.81,0.1995,-0.5708,0.8218,0.480,-0.268,-0.425,-11.35,-34.80,0.8380,0.2244,0.5247,-0.024,0.449,-0.330,-55.42,23.43,0.10,-2.17,-2.27
7285,1471.50,1443.30,1459.41,0.0596,0.0410,1.2009,0.097,-0.062,0.051,-2.84,1.81,0.1987,-0.5701,0.8174,-0.757,0.159,0.140,-11.35,-34.81,0.8287,0.2261,0.5222,-0.009,0.479,-0.575,-55.41,23.43,0.10,-2.17,-2.27
7310,1440.07,1420.73,1443.30,0.0581,0.0408,1.2034,-0.025,-0.062,0.005,-2.84,1.82,0.1973,-0.5708,0.8196,0.922,-0.222,-0.624,-11.35,-34.79,0.8376,0.2284,0.5240,-0.238,0.037,-0.483,-55.42,23.42,0.10,-2.17,-2.27
7324,1444.10,1383.66,1414.29,0.0579,0.0378,1.1956,0.036,-0.046,0.020,-2.84,1.82,0.2017,-0.5662,0.8188,0.587,-0.085,-0.410,-11.35,-34.78,0.8291,0.2299,0.5193,-0.070,0.143,-0.391,-55.42,23.43,0.10,-2.17,-2.27
7349,1459.41,1544.84,1513.41,0.0649,0.0378,1.1960,-0.086,0.015,-0.010,-2.84,1.81,0.1987,-0.5754,0.8132,-0.604,0.037,0.079,-11.35,-34.80,0.8331,0.2268,0.5177,-0.100,0.540,0.006,-55.41,23.43,0.10,-2.17,-2.27
7363,1459.41,1540.00,1513.41,0.0593,0.0415,1.1992,-0.071,-0.092,-0.010,-2.85,1.82,0.2024,-0.5671,0.8149,0.617,-0.451,-0.563,-11.36,-34.80,0.8341,0.2264,0.5234,-0.161,0.372,0.082,-55.41,23.43,0.10,-2.17,-2.27
7388,1448.13,1415.09,1433.63,0.0579,0.0391,1.1997,-0.025,0.076,0.036,-2.84,1.82,0.2007,-0.5730,0.8127,-0.314,0.434,0.033,-11.35,-34.81,0.8318,0.2261,0.5242,-0.024,0.327,-0.178,-55.41,23.43,0.10,-2.17,-2.27
7402,1427.18,1444.91,1449.74,0.0593,0.0354,1.1958,-0.086,-0.016,-0.025,-2.84,1.81,0.1975,-0.5740,0.8142,0.525,-0.039,-0.257,-11.35,-34.81,0.8351,0.2240,0.5206,-0.054,0.082,-0.407,-55.42,23.43,0.10,-2.17,-2.27
7427,1411.06,1451.36,1436.85,0.0571,0.0398,1.1985,0.036,-0.000,-0.132,-2.84,1.82,0.1973,-0.5701,0.8262,-0.131,-0.009,-0.074,-11.34,-34.81,0.8304,0.2258,0.5179,-0.100,-0.009,-0.391,-55.42,23.43,0.11,-2.17,-2.27
7441,1406.23,1401.39,1411.87,0.0601,0.0393,1.1943,-0.147,0.076,0.066,-2.84,1.82,0.1958,-0.5698,0.8103,-0.711,0.159,0.018,-11.34,-34.83,0.8372,0.2277,0.5206,0.068,0.296,-0.391,-55.43,23.43,0.11,-2.17,-2.28
7466,1476.34,1552.89,1540.00,0.0586,0.0376,1.2014,0.005,0.076,-0.071,-2.84,1.82,0.2021,-0.5710,0.8169,1.045,-0.283,-0.624,-11.35,-34.80,0.8281,0.2274,0.5238,-0.009,0.617,-0.254,-55.41,23.43,0.11,-2.17,-2.28
7480,1457.00,1560.15,1506.96,0.0559,0.0371,1.1965,0.021,0.045,0.081,-2.83,1.81,0.2029,-0.5698,0.8179,0.006,0.007,-0.242,-11.35,-34.80,0.8375,0.2241,0.5214,-0.039,0.510,-0.116,-55.41,23.43,0.11,-2.17,-2.28
7494,1431.21,1460.22,1440.88,0.0625,0.0376,1.1968,0.005,-0.016,-0.010,-2.84,1.81,0.1953,-0.5691,0.8135,-0.391,0.220,-0.043,-11.34,-34.81,0.8312,0.2251,0.5259,0.053,0.708,-0.361,-55.40,23.42,0.11,-2.17,-2.28
7519,1448.13,1440.88,1431.21,0.0618,0.0376,1.1948,-0.071,0.030,-0.025,-2.84,1.81,0.2004,-0.5667,0.8145,0.342,-0.528,-0.456,-11.36,-34.81,0.8347,0.2234,0.5225,-0.131,0.220,-0.529,-55.41,23.41,0.11,-2.17,-2.28
7534,1482.78,1520.66,1508.57,0.0601,0.0383,1.1948,-0.025,0.076,0.005,-2.84,1.81,0.2031,-0.5686,0.8157,-0.268,0.205,-0.089,-11.36,-34.81,0.8315,0.2247,0.5244,-0.238,0.098,-0.544,-55.41,23.41,0.11,-2.17,-2.28
7558,1426.37,1407.03,1411.06,0.0605,0.0388,1.1987,0.036,0.030,-0.071,-2.84,1.81,0.1953,-0.5728,0.8167,0.800,-0.283,-0.395,-11.36,-34.80,0.8331,0.2307,0.5153,-0.131,0.281,-0.254,-55.41,23.42,0.11,-2.17,-2.27
7573,1427.99,1395.75,1405.42,0.0613,0.0405,1.1909,-0.071,-0.031,0.051,-2.84,1.82,0.2024,-0.5667,0.8147,0.632,-0.436,-0.379,-11.37,-34.79,0.8311,0.2296,0.5159,-0.238,0.235,0.021,-55.41,23.43,0.11,-2.17,-2.27
7597,1448.13,1558.53,1511.79,0.0566,0.0369,1.1970,-0.010,0.015,0.005,-2.84,1.81,0.1963,-0.5725,0.8096,-0.650,-0.024,0.094,-11.37,-34.81,0.8298,0.2255,0.5249,-0.039,0.525,0.082,-55.40,23.42,0.10,-2.17,-2.27
7611,1441.69,1487.62,1495.68,0.0569,0.0376,1.1946,0.005,0.076,0.036,-2.83,1.81,0.1997,-0.5686,0.8167,0.831,-0.390,-0.501,-11.37,-34.80,0.8315,0.2245,0.5217,-0.024,0.372,-0.147,-55.40,23.42,0.10,-2.17,-2.27
7636,1452.97,1448.13,1455.38,0.0603,0.0369,1.1941,0.005,0.045,0.112,-2.83,1.81,0.1941,-0.5698,0.8174,-0.116,0.419,-0.059,-11.35,-34.81,0.8309,0.2262,0.5275,-0.161,0.143,-0.361,-55.40,23.41,0.10,-2.17,-2.27
7650,1457.00,1535.97,1495.68,0.0632,0.0378,1.1997,0.143,0.106,0.112,-2.84,1.82,0.1968,-0.5647,0.8052,0.098,-0.085,-0.089,-11.35,-34.81,0.8351,0.2260,0.5225,0.098,0.159,-0.529,-55.40,23.41,0.10,-2.17,-2.27
7665,1482.78,1576.26,1556.12,0.0581,0.0386,1.1975,0.005,-0.077,0.005,-2.84,1.82,0.2024,-0.5669,0.8225,0.510,-0.405,-0.532,-11.36,-34.80,0.8324,0.2271,0.5194,-0.039,0.342,-0.422,-55.41,23.41,0.10,-2.17,-2.27
7689,1431.21,1370.77,1403.81,0.0579,0.0381,1.1985,-0.040,-0.000,-0.025,-2.83,1.82,0.1951,-0.5725,0.8198,-0.711,0.205,0.079,-11.35,-34.82,0.8353,0.2245,0.5214,-0.039,0.388,-0.345,-55.40,23.41,0.10,-2.17,-2.27
7704,1448.94,1420.73,1431.21,0.0596,0.0396,1.1943,-0.025,-0.000,-0.071,-2.83,1.82,0.1956,-0.5732,0.8169,0.480,-0.009,-0.288,-11.35,-34.82,0.8307,0.2263,0.5231,0.114,0.662,-0.300,-55.40,23.41,0.10,-2.17,-2.27
7728,1443.30,1519.85,1499.71,0.0603,0.0376,1.1914,-0.040,-0.046,0.112,-2.84,1.82,0.2004,-0.5691,0.8186,0.098,-0.207,-0.288,-11.35,-34.81,0.8350,0.2272,0.5214,-0.131,0.418,-0.437,-55.39,23.41,0.10,-2.16,-2.27
7743,1414.29,1440.88,1415.90,0.0645,0.0359,1.2009,-0.071,-0.000,0.036,-2.84,1.81,0.1985,-0.5701,0.8154,-0.589,0.266,0.018,-11.35,-34.82,0.8306,0.2281,0.5249,-0.238,0.082,-0.407,-55.39,23.41,0.10,-2.16,-2.27
7767,1474.73,1506.15,1510.18,0.0566,0.0415,1.1963,0.067,-0.062,-0.041,-2.84,1.82,0.2009,-0.5701,0.8220,0.709,-0.482,-0.639,-11.36,-34.81,0.8389,0.2316,0.5187,-0.161,0.204,-0.132,-55.40,23.42,0.10,-2.16,-2.27
7782,1477.95,1564.98,1535.16,0.0586,0.0386,1.1978,0.112,-0.046,-0.010,-2.84,1.82,0.2017,-0.5713,0.8201,0.220,0.282,-0.150,-11.35,-34.80,0.8337,0.2277,0.5214,-0.238,0.098,-0.116,-55.40,23.42,0.10,-2.16,-2.27
7806,1442.49,1390.92,1405.42,0.0615,0.0383,1.2014,0.067,0.106,0.036,-2.84,1.82,0.1987,-0.5732,0.8174,0.251,-0.238,-0.303,-11.36,-34.80,0.8292,0.2246,0.5253,-0.115,0.372,0.021,-55.39,23.41,0.10,-2.16,-2.27
7821,1442.49,1412.67,1419.93,0.0601,0.0398,1.1973,-0.056,-0.031,0.036,-2.84,1.82,0.1997,-0.5684,0.8186,0.296,-0.253,-0.379,-11.36,-34.80,0.8341,0.2236,0.5222,0.083,0.479,-0.147,-55.40,23.41,0.10,-2.16,-2.26
7835,1431.21,1459.41,1482.78,0.0588,0.0417,1.1931,-0.025,-0.046,-0.056,-2.84,1.83,0.2002,-0.5676,0.8132,-0.223,0.007,-0.089,-11.36,-34.80,0.8345,0.2220,0.5221,-0.070,0.266,-0.162,-55.40,23.40,0.10,-2.16,-2.26
7860,1431.21,1423.96,1446.52,0.0596,0.0308,1.1982,0.082,-0.000,0.097,-2.84,1.82,0.1980,-0.5693,0.8127,0.510,-0.054,-0.349,-11.36,-34.80,0.8346,0.2229,0.5215,0.037,0.159,-0.590,-55.40,23.40,0.10,-2.16,-2.26
7874,1405.42,1404.62,1395.75,0.0608,0.0371,1.1909,0.005,0.045,0.036,-2.84,1.82,0.2002,-0.5684,0.8206,0.648,-0.131,-0.395,-11.36,-34.78,0.8334,0.2279,0.5209,0.022,0.098,-0.559,-55.41,23.40,0.10,-2.16,-2.26
7899,1455.38,1545.64,1522.27,0.0569,0.0391,1.2012,-0.056,0.030,-0.025,-2.84,1.82,0.1990,-0.5706,0.8157,-0.513,0.205,0.048,-11.36,-34.80,0.8368,0.2274,0.5210,-0.176,0.250,-0.361,-55.41,23.40,0.10,-2.16,-2.26
7913,1455.38,1548.06,1540.00,0.0579,0.0349,1.1965,-0.071,-0.000,-0.071,-2.84,1.82,0.1951,-0.5718,0.8142,0.174,-0.253,-0.486,-11.36,-34.80,0.8347,0.2250,0.5178,0.068,0.510,-0.254,-55.41,23.40,0.10,-2.16,-2.26
7938,1449.74,1413.48,1420.73,0.0583,0.0366,1.1941,-0.056,-0.107,0.127,-2.84,1.81,0.1997,-0.5681,0.8159,0.022,0.220,0.002,-11.35,-34.80,0.8325,0.2240,0.5239,-0.115,0.540,-0.208,-55.40,23.39,0.10,-2.16,-2.26
7952,1454.58,1460.22,1457.00,0.0610,0.0398,1.1931,-0.040,0.076,0.036,-2.84,1.81,0.2009,-0.5698,0.8154,0.251,0.083,-0.166,-11.35,-34.80,0.8336,0.2275,0.5214,-0.176,0.143,-0.300,-55.41,23.40,0.10,-2.16,-2.27
7977,1432.01,1452.16,1432.82,0.0540,0.0383,1.1912,-0.010,0.030,0.051,-2.83,1.81,0.2017,-0.5691,0.8193,0.266,-0.085,-0.334,-11.35,-34.80,0.8333,0.2278,0.5192,-0.100,0.052,-0.330,-55.41,23.40,0.10,-2.16,-2.27
7991,1432.01,1392.53,1415.90,0.0557,0.0383,1.1970,0.036,-0.062,-0.056,-2.83,1.82,0.1956,-0.5693,0.8137,-0.482,0.098,-0.013,-11.35,-34.81,0.8334,0.2264,0.5212,-0.039,0.021,-0.132,-55.42,23.40,0.10,-2.16,-2.27
8015,1459.41,1536.78,1519.05,0.0571,0.0452,1.1965,-0.117,-0.016,0.097,-2.83,1.82,0.2014,-0.5693,0.8127,0.770,-0.314,-0.486,-11.36,-34.79,0.8311,0.2266,0.5211,-0.131,0.189,-0.010,-55.42,23.40,0.10,-2.16,-2.27
8030,1477.95,1527.11,1514.21,0.0596,0.0410,1.1985,0.036,-0.016,0.005,-2.83,1.82,0.2024,-0.5632,0.8127,0.373,-0.085,-0.364,-11.36,-34.79,0.8335,0.2251,0.5189,-0.039,0.540,-0.086,-55.42,23.40,0.10,-2.17,-2.27
8055,1448.13,1394.14,1409.45,0.0593,0.0344,1.2036,-0.025,-0.046,-0.102,-2.83,1.82,0.1982,-0.5747,0.8159,-0.146,-0.085,-0.089,-11.36,-34.80,0.8357,0.2245,0.5178,-0.054,0.479,-0.300,-55.42,23.40,0.10,-2.17,-2.27
8069,1457.00,1461.03,1448.13,0.0618,0.0391,1.2019,0.036,0.015,-0.071,-2.83,1.82,0.2012,-0.5732,0.8284,0.602,-0.390,-0.471,-11.37,-34.79,0.8356,0.2261,0.5229,-0.192,0.250,-0.498,-55.42,23.40,0.10,-2.17,-2.27
8093,1419.12,1444.10,1439.27,0.0574,0.0354,1.1926,-0.025,-0.016,-0.025,-2.83,1.82,0.1990,-0.5759,0.8145,-0.162,0.175,-0.043,-11.36,-34.80,0.8362,0.2274,0.5222,0.068,0.067,-0.666,-55.43,23.40,0.10,-2.17,-2.27
8108,1425.57,1371.58,1394.95,0.0581,0.0388,1.1978,0.051,-0.046,0.005,-2.83,1.82,0.1968,-0.5698,0.8169,0.312,-0.192,-0.318,-11.36,-34.80,0.8357,0.2271,0.5204,-0.146,0.372,-0.452,-55.43,23.40,0.10,-2.17,-2.27
8132,1482.78,1547.25,1524.69,0.0574,0.0356,1.1963,0.021,-0.031,-0.071,-2.83,1.82,0.2002,-0.5691,0.8066,-0.101,-0.100,-0.288,-11.36,-34.81,0.8351,0.2277,0.5221,0.114,0.357,-0.284,-55.43,23.41,0.10,-2.17,-2.27
8147,1478.75,1514.21,1493.26,0.0640,0.0403,1.1943,-0.040,0.030,-0.041,-2.83,1.82,0.1970,-0.5693,0.8142,-0.284,0.114,-0.074,-11.36,-34.81,0.8323,0.2280,0.5231,-0.054,0.540,-0.208,-55.42,23.41,0.10,-2.17,-2.27
8171,1422.34,1380.44,1391.72,0.0598,0.0359,1.1980,-0.040,0.015,-0.010,-2.83,1.82,0.2002,-0.5703,0.8132,0.678,-0.268,-0.395,-11.37,-34.80,0.8358,0.2266,0.5183,-0.115,0.372,-0.132,-55.42,23.41,0.10,-2.17,-2.27
8186,1457.00,1444.10,1457.80,0.0615,0.0371,1.1963,0.036,0.091,-0.025,-2.84,1.82,0.2012,-0.5730,0.8147,0.067,0.220,-0.211,-11.37,-34.81,0.8344,0.2238,0.5222,-0.085,0.159,-0.116,-55.43,23.41,0.10,-2.17,-2.27
8211,1441.69,1467.47,1486.81,0.0576,0.0391,1.2000,-0.086,-0.077,-0.010,-2.84,1.81,0.1997,-0.5703,0.8215,0.205,-0.344,-0.349,-11.37,-34.80,0.8372,0.2249,0.5211,-0.222,0.098,-0.116,-55.43,23.40,0.10,-2.18,-2.27
8225,1415.90,1405.42,1430.40,0.0608,0.0378,1.1941,0.005,0.030,0.066,-2.84,1.81,0.2036,-0.5681,0.8203,0.419,-0.405,-0.395,-11.38,-34.79,0.8354,0.2253,0.5195,-0.176,0.357,-0.254,-55.44,23.40,0.09,-2.18,-2.27
8250,1474.73,1523.08,1520.66,0.0576,0.0369,1.2014,-0.086,-0.016,0.066,-2.84,1.81,0.1970,-0.5725,0.8137,-0.391,0.236,-0.043,-11.37,-34.81,0.8320,0.2251,0.5229,0.098,0.342,-0.391,-55.43,23.40,0.09,-2.18,-2.27
8264,1443.30,1533.55,1498.10,0.0574,0.0381,1.2012,0.005,-0.092,0.036,-2.83,1.81,0.1992,-0.5679,0.8198,0.724,-0.299,-0.532,-11.37,-34.80,0.8347,0.2252,0.5198,-0.161,0.296,-0.315,-55.44,23.40,0.09,-2.18,-2.27
8289,1455.38,1407.03,1411.06,0.0588,0.0366,1.2017,0.005,-0.000,0.036,-2.83,1.81,0.1990,-0.5720,0.8123,-0.528,0.190,0.063,-11.37,-34.82,0.8326,0.2277,0.5210,0.098,0.464,-0.422,-55.43,23.40,0.09,-2.18,-2.27
8303,1445.71,1406.23,1457.00,0.0598,0.0342,1.1958,-0.040,-0.016,0.005,-2.83,1.81,0.2017,-0.5752,0.8101,-0.162,-0.070,-0.105,-11.37,-34.83,0.8370,0.2233,0.5244,0.159,0.174,-0.559,-55.43,23.40,0.09,-2.18,-2.27
8317,1471.50,1495.68,1487.62,0.0576,0.0391,1.1953,0.036,-0.046,-0.010,-2.83,1.81,0.2021,-0.5679,0.8181,0.892,-0.344,-0.456,-11.38,-34.82,0.8336,0.2278,0.5210,-0.176,0.388,-0.254,-55.43,23.40,0.09,-2.18,-2.27
8342,1436.04,1427.99,1431.21,0.0593,0.0396,1.1960,0.067,0.015,0.081,-2.83,1.81,0.1965,-0.5720,0.8171,-0.391,0.251,-0.059,-11.37,-34.83,0.8374,0.2268,0.5222,-0.009,0.372,-0.178,-55.43,23.40,0.09,-2.18,-2.27
8357,1429.60,1387.69,1423.96,0.0620,0.0383,1.1995,-0.040,-0.107,0.097,-2.84,1.81,0.1973,-0.5740,0.8164,0.251,0.037,-0.272,-11.36,-34.83,0.8346,0.2300,0.5216,-0.039,0.372,-0.178,-55.43,23.41,0.09,-2.18,-2.27
8381,1478.75,1522.27,1530.33,0.0566,0.0408,1.1897,-0.101,0.030,0.127,-2.83,1.81,0.2039,-0.5706,0.8086,-0.192,-0.115,-0.135,-11.37,-34.84,0.8350,0.2267,0.5239,-0.146,0.311,-0.162,-55.43,23.40,0.09,-2.18,-2.27
8395,1458.61,1509.38,1490.84,0.0564,0.0422,1.1946,0.082,0.061,-0.148,-2.83,1.82,0.1990,-0.5703,0.8052,-0.284,0.312,0.124,-11.37,-34.86,0.8287,0.2247,0.5247,-0.024,0.174,-0.193,-55.42,23.40,0.09,-2.18,-2.27
8420,1446.52,1417.51,1423.96,0.0552,0.0413,1.1995,-0.071,-0.077,-0.025,-2.83,1.82,0.2012,-0.5681,0.8135,0.846,-0.467,-0.517,-11.38,-34.84,0.8328,0.2257,0.5192,-0.253,0.189,-0.223,-55.43,23.40,0.09,-2.18,-2.27
8434,1484.40,1469.08,1474.73,0.0601,0.0354,1.1914,-0.101,0.061,-0.041,-2.83,1.81,0.2012,-0.5706,0.8147,-0.146,0.037,-0.196,-11.38,-34.84,0.8335,0.2261,0.5216,-0.131,0.266,-0.254,-55.43,23.39,0.09,-2.18,-2.27
8459,1411.06,1413.48,1427.18,0.0581,0.0374,1.1970,-0.086,-0.016,-0.132,-2.83,1.81,0.1978,-0.5703,0.8145,0.067,-0.207,-0.257,-11.38,-34.85,0.8326,0.2245,0.5226,0.098,0.388,-0.407,-55.42,23.39,0.09,-2.19,-2.27
8473,1442.49,1407.84,1419.93,0.0618,0.0388,1.1995,-0.025,0.015,0.005,-2.83,1.81,0.2021,-0.5703,0.8193,0.785,-0.222,-0.532,-11.39,-34.84,0.8357,0.2239,0.5208,-0.070,0.281,-0.330,-55.43,23.39,0.08,-2.19,-2.27
8498,1481.17,1554.51,1526.30,0.0586,0.0425,1.1926,0.143,0.045,0.005,-2.83,1.82,0.1958,-0.5720,0.8147,-0.345,0.220,0.048,-11.38,-34.85,0.8344,0.2269,0.5184,0.068,0.525,-0.452,-55.43,23.40,0.08,-2.19,-2.27
8512,1443.30,1513.41,1503.74,0.0608,0.0415,1.1968,-0.010,-0.000,-0.041,-2.83,1.82,0.1982,-0.5698,0.8059,0.434,-0.360,-0.425,-11.38,-34.85,0.8363,0.2258,0.5223,0.068,0.220,-0.498,-55.43,23.40,0.08,-2.19,-2.27
8537,1452.97,1432.82,1409.45,0.0583,0.0400,1.1982,-0.086,0.061,-0.010,-2.83,1.82,0.2009,-0.5676,0.8201,-0.314,0.144,-0.043,-11.38,-34.85,0.8304,0.2275,0.5223,-0.268,0.189,-0.407,-55.43,23.39,0.08,-2.19,-2.27
8551,1461.03,1497.29,1457.00,0.0610,0.0391,1.2017,0.005,-0.046,0.036,-2.83,1.82,0.1980,-0.5735,0.8071,-0.406,0.205,0.018,-11.38,-34.87,0.8370,0.2268,0.5201,0.037,0.357,-0.376,-55.43,23.40,0.08,-2.19,-2.27
8576,1419.93,1432.01,1431.21,0.0588,0.0403,1.1946,-0.071,-0.031,-0.010,-2.83,1.82,0.2029,-0.5667,0.8245,0.754,-0.299,-0.532,-11.38,-34.85,0.8330,0.2239,0.5231,-0.131,0.281,-0.178,-55.43,23.39,0.08,-2.19,-2.27
8590,1422.34,1407.84,1405.42,0.0596,0.0376,1.1978,0.067,0.030,-0.010,-2.83,1.82,0.2004,-0.5696,0.8123,-0.436,0.144,-0.120,-11.38,-34.86,0.8333,0.2229,0.5214,-0.131,0.311,-0.132,-55.43,23.38,0.08,-2.19,-2.27
8615,1474.73,1546.45,1508.57,0.0610,0.0386,1.2036,-0.010,-0.077,0.036,-2.83,1.82,0.1987,-0.5720,0.8218,0.587,-0.375,-0.486,-11.39,-34.84,0.8340,0.2249,0.5228,-0.115,0.357,-0.330,-55.43,23.38,0.08,-2.19,-2.27
8629,1444.10,1534.36,1512.60,0.0581,0.0415,1.1899,0.051,-0.092,-0.071,-2.83,1.83,0.2012,-0.5686,0.8206,0.357,-0.115,-0.334,-11.39,-34.83,0.8373,0.2277,0.5249,-0.070,0.220,-0.269,-55.43,23.38,0.08,-2.19,-2.27
8654,1446.52,1413.48,1429.60,0.0586,0.0408,1.1980,0.021,-0.107,-0.025,-2.84,1.83,0.1995,-0.5718,0.8198,0.128,0.098,-0.089,-11.39,-34.83,0.8352,0.2272,0.5228,-0.115,0.189,-0.284,-55.43,23.38,0.08,-2.19,-2.27
8668,1457.00,1484.40,1481.17,0.0593,0.0356,1.1909,-0.056,-0.031,-0.087,-2.84,1.83,0.1990,-0.5701,0.8169,0.510,-0.299,-0.410,-11.39,-34.83,0.8335,0.2283,0.5186,0.007,0.296,-0.437,-55.43,23.39,0.08,-2.19,-2.26
8693,1433.63,1452.16,1436.85,0.0583,0.0391,1.2058,-0.040,-0.031,0.143,-2.84,1.83,0.2012,-0.5737,0.8127,-0.406,0.068,0.002,-11.39,-34.84,0.8370,0.2245,0.5189,-0.146,0.510,-0.300,-55.43,23.38,0.08,-2.19,-2.26
8707,1425.57,1396.56,1415.09,0.0603,0.0354,1.1960,-0.056,0.091,0.081,-2.84,1.82,0.1992,-0.5715,0.8120,0.205,0.007,-0.288,-11.39,-34.85,0.8340,0.2264,0.5243,-0.100,0.388,-0.330,-55.43,23.38,0.08,-2.19,-2.26
8732,1457.00,1557.73,1508.57,0.0554,0.0378,1.1987,-0.239,0.045,0.051,-2.83,1.82,0.1992,-0.5732,0.8196,0.587,-0.131,-0.425,-11.39,-34.84,0.8337,0.2284,0.5262,-0.192,0.449,-0.315,-55.42,23.38,0.07,-2.19,-2.26
8746,1473.92,1535.16,1519.85,0.0569,0.0403,1.1934,0.082,0.030,0.036,-2.83,1.82,0.1978,-0.5703,0.8140,-0.452,0.266,-0.028,-11.38,-34.85,0.8331,0.2257,0.5221,-0.100,0.113,-0.315,-55.42,23.38,0.07,-2.19,-2.26
8771,1452.97,1412.67,1441.69,0.0596,0.0381,1.1960,0.051,-0.046,-0.010,-2.83,1.82,0.1973,-0.5735,0.8147,0.571,-0.543,-0.517,-11.39,-34.84,0.8367,0.2267,0.5234,-0.146,0.174,-0.376,-55.42,23.37,0.07,-2.19,-2.26
8785,1469.89,1465.86,1461.03,0.0591,0.0396,1.1968,0.097,0.015,0.020,-2.83,1.83,0.1997,-0.5679,0.8191,0.312,-0.024,-0.166,-11.39,-34.83,0.8359,0.2277,0.5239,-0.070,0.311,-0.239,-55.42,23.37,0.07,-2.19,-2.26
8810,1394.14,1417.51,1418.32,0.0598,0.0359,1.1956,-0.010,-0.031,0.127,-2.83,1.82,0.1995,-0.5723,0.8196,0.113,-0.222,-0.318,-11.39,-34.83,0.8340,0.2247,0.5261,0.022,0.296,-0.193,-55.42,23.37,0.07,-2.19,-2.26
8824,1409.45,1392.53,1407.03,0.0576,0.0366,1.1973,0.036,-0.062,0.081,-2.83,1.82,0.1980,-0.5688,0.8152,0.678,-0.329,-0.410,-11.40,-34.82,0.8348,0.2257,0.5208,-0.100,0.372,-0.223,-55.42,23.37,0.07,-2.19,-2.26
8849,1482.78,1547.25,1510.99,0.0618,0.0364,1.2007,-0.101,-0.000,0.051,-2.83,1.82,0.1980,-0.5725,0.8218,-0.574,0.083,0.124,-11.39,-34.84,0.8368,0.2278,0.5214,-0.100,0.311,-0.254,-55.42,23.37,0.07,-2.19,-2.26
8863,1448.94,1547.25,1503.74,0.0593,0.0342,1.1904,0.143,0.030,-0.025,-2.83,1.82,0.1968,-0.5737,0.8115,0.648,-0.238,-0.410,-11.39,-34.84,0.8341,0.2249,0.5190,-0.131,0.327,-0.269,-55.43,23.37,0.07,-2.19,-2.26
8888,1452.97,1409.45,1405.42,0.0557,0.0396,1.2000,0.021,-0.046,-0.025,-2.83,1.82,0.2017,-0.5684,0.8225,-0.192,0.022,-0.105,-11.39,-34.84,0.8378,0.2249,0.5212,-0.024,0.174,-0.483,-55.43,23.37,0.07,-2.19,-2.26
8902,1454.58,1473.11,1443.30,0.0557,0.0366,1.1938,0.005,-0.077,0.036,-2.83,1.82,0.1995,-0.5723,0.8101,-0.116,0.053,0.033,-11.39,-34.85,0.8361,0.2235,0.5220,-0.192,0.510,-0.300,-55.43,23.36,0.07,-2.19,-2.26
8927,1405.42,1457.00,1428.79,0.0581,0.0388,1.1987,-0.025,0.030,-0.117,-2.83,1.82,0.1995,-0.5662,0.8118,0.266,-0.344,-0.395,-11.40,-34.84,0.8370,0.2247,0.5201,-0.085,0.433,-0.361,-55.43,23.36,0.07,-2.19,-2.26
8941,1431.21,1411.06,1426.37,0.0583,0.0352,1.1980,-0.056,-0.000,0.020,-2.83,1.81,0.2043,-0.5698,0.8257,-0.024,0.068,-0.028,-11.40,-34.84,0.8323,0.2253,0.5223,-0.207,0.281,-0.254,-55.43,23.36,0.07,-2.19,-2.26
8966,1461.03,1527.11,1508.57,0.0620,0.0381,1.1997,0.005,-0.062,0.036,-2.83,1.81,0.1970,-0.5684,0.8093,0.327,-0.268,-0.349,-11.40,-34.83,0.8337,0.2283,0.5200,-0.054,0.327,-0.284,-55.43,23.36,0.07,-2.19,-2.26
8980,1439.27,1547.25,1527.11,0.0569,0.0376,1.1992,-0.071,-0.046,0.036,-2.83,1.81,0.2029,-0.5725,0.8147,0.480,-0.421,-0.364,-11.41,-34.83,0.8304,0.2253,0.5220,-0.054,0.372,-0.254,-55.43,23.36,0.06,-2.19,-2.25
9005,1431.21,1403.81,1420.73,0.0588,0.0420,1.2000,-0.056,-0.046,-0.117,-2.83,1.82,0.1963,-0.5696,0.8142,-0.482,0.083,-0.013,-11.40,-34.85,0.8346,0.2249,0.5192,-0.070,0.204,-0.300,-55.43,23.36,0.06,-2.19,-2.25
9019,1460.22,1456.19,1469.89,0.0571,0.0408,1.2004,0.082,-0.016,-0.056,-2.83,1.82,0.2009,-0.5742,0.8118,0.541,-0.344,-0.395,-11.41,-34.85,0.8319,0.2256,0.5206,-0.054,0.342,-0.284,-55.43,23.36,0.06,-2.19,-2.25
9044,1421.54,1481.98,1461.03,0.0598,0.0383,1.1973,0.036,0.015,-0.041,-2.83,1.82,0.1970,-0.5676,0.8113,-0.268,0.205,-0.043,-11.40,-34.86,0.8324,0.2253,0.5221,-0.131,0.372,-0.284,-55.43,23.36,0.06,-2.19,-2.25
9058,1416.70,1431.21,1426.37,0.0598,0.0369,1.1985,-0.025,0.045,-0.025,-2.83,1.82,0.2046,-0.5742,0.8181,-0.360,-0.146,-0.196,-11.40,-34.87,0.8357,0.2269,0.5266,-0.146,0.143,-0.239,-55.43,23.36,0.06,-2.19,-2.25
9083,1471.50,1527.11,1482.78,0.0564,0.0374,1.1948,0.005,0.061,-0.025,-2.82,1.82,0.1997,-0.5706,0.8152,0.190,-0.207,-0.242,-11.41,-34.86,0.8317,0.2263,0.5233,-0.161,0.327,-0.223,-55.42,23.35,0.06,-2.19,-2.25
9097,1452.97,1557.73,1527.11,0.0605,0.0410,1.1921,-0.010,0.076,0.112,-2.82,1.82,0.1987,-0.5684,0.8132,-0.543,0.114,0.048,-11.41,-34.87,0.8354,0.2255,0.5209,0.022,0.342,-0.376,-55.43,23.35,0.06,-2.19,-2.25
9122,1432.01,1422.34,1411.06,0.0625,0.0388,1.2014,0.097,-0.000,0.097,-2.83,1.82,0.1992,-0.5701,0.8179,0.907,-0.207,-0.517,-11.41,-34.85,0.8336,0.2241,0.5217,-0.253,0.372,-0.315,-55.42,23.35,0.06,-2.19,-2.25
9136,1452.16,1444.91,1426.37,0.0637,0.0403,1.2043,-0.040,0.091,0.020,-2.83,1.83,0.2004,-0.5703,0.8181,-0.223,-0.115,-0.227,-11.41,-34.86,0.8339,0.2252,0.5198,-0.131,0.327,-0.422,-55.43,23.35,0.05,-2.19,-2.25
9161,1421.54,1469.89,1448.94,0.0625,0.0381,1.1990,0.036,0.030,0.036,-2.83,1.83,0.1968,-0.5696,0.8105,0.296,-0.085,-0.227,-11.41,-34.85,0.8368,0.2255,0.5211,-0.039,0.479,-0.361,-55.42,23.35,0.05,-2.19,-2.24
9175,1436.85,1396.56,1410.26,0.0581,0.0388,1.1946,0.112,-0.107,0.036,-2.83,1.83,0.1958,-0.5681,0.8164,0.541,-0.329,-0.471,-11.41,-34.84,0.8359,0.2246,0.5212,-0.161,0.327,-0.345,-55.43,23.34,0.05,-2.19,-2.24
9200,1479.56,1508.57,1523.88,0.0608,0.0415,1.1951,-0.010,-0.016,0.036,-2.83,1.83,0.1978,-0.5708,0.8142,-0.146,0.144,-0.074,-11.40,-34.85,0.8352,0.2275,0.5210,-0.039,0.296,-0.284,-55.43,23.35,0.05,-2.19,-2.24
9214,1468.28,1535.97,1506.96,0.0618,0.0376,1.2002,0.005,-0.077,0.097,-2.84,1.83,0.2024,-0.5652,0.8174,0.235,-0.375,-0.410,-11.41,-34.85,0.8323,0.2235,0.5242,-0.085,0.372,-0.254,-55.42,23.34,0.05,-2.19,-2.24
9239,1423.96,1390.92,1406.23,0.0591,0.0388,1.2019,-0.040,-0.031,-0.056,-2.84,1.83,0.1943,-0.5713,0.8169,-0.024,0.236,-0.043,-11.39,-34.85,0.8334,0.2263,0.5232,0.053,0.159,-0.391,-55.42,23.34,0.05,-2.19,-2.24
9253,1452.97,1415.90,1429.60,0.0571,0.0369,1.1951,-0.086,-0.016,0.036,-2.84,1.83,0.1985,-0.5698,0.8145,0.235,-0.039,-0.120,-11.39,-34.85,0.8317,0.2290,0.5234,-0.207,0.342,-0.345,-55.42,23.35,0.05,-2.19,-2.24
9278,1412.67,1508.57,1473.92,0.0596,0.0366,1.1992,0.021,-0.000,-0.010,-2.84,1.83,0.1997,-0.5715,0.8184,0.281,-0.161,-0.257,-11.40,-34.84,0.8379,0.2274,0.5212,-0.100,0.388,-0.223,-55.42,23.35,0.06,-2.19,-2.24
9292,1419.12,1433.63,1438.46,0.0557,0.0366,1.1924,-0.010,-0.062,0.020,-2.83,1.83,0.1997,-0.5688,0.8149,-0.284,-0.085,-0.089,-11.40,-34.85,0.8346,0.2227,0.5204,-0.131,0.327,-0.208,-55.42,23.34,0.06,-2.19,-2.24
9317,1462.64,1506.15,1472.31,0.0610,0.0413,1.1958,-0.101,-0.062,-0.102,-2.84,1.83,0.2004,-0.5742,0.8208,0.357,-0.283,-0.257,-11.40,-34.84,0.8347,0.2227,0.5215,-0.085,0.235,-0.315,-55.43,23.34,0.06,-2.19,-2.24
9331,1477.95,1551.28,1508.57,0.0576,0.0366,1.1990,-0.025,-0.000,-0.056,-2.84,1.82,0.2014,-0.5688,0.8149,0.525,-0.054,-0.334,-11.40,-34.84,0.8326,0.2234,0.5264,-0.115,0.418,-0.330,-55.42,23.33,0.06,-2.19,-2.24
9356,1443.30,1411.06,1403.81,0.0647,0.0408,1.2009,-0.010,-0.000,-0.025,-2.84,1.83,0.1973,-0.5715,0.8098,0.037,0.098,-0.105,-11.40,-34.84,0.8369,0.2246,0.5221,0.022,0.220,-0.361,-55.42,23.33,0.06,-2.19,-2.24
9370,1473.92,1427.18,1431.21,0.0603,0.0376,1.1951,0.021,-0.016,-0.041,-2.84,1.83,0.1978,-0.5691,0.8071,0.449,-0.299,-0.395,-11.40,-34.84,0.8346,0.2249,0.5187,-0.238,0.327,-0.345,-55.43,23.33,0.06,-2.19,-2.24
9395,1431.21,1497.29,1477.14,0.0613,0.0342,1.1948,-0.101,-0.123,-0.025,-2.85,1.82,0.1958,-0.5691,0.8218,-0.406,0.282,-0.059,-11.39,-34.85,0.8347,0.2279,0.5181,0.007,0.418,-0.315,-55.43,23.33,0.06,-2.19,-2.24
9409,1444.10,1431.21,1419.93,0.0547,0.0354,1.1956,0.005,-0.062,0.020,-2.84,1.82,0.2004,-0.5698,0.8125,0.266,-0.176,-0.288,-11.39,-34.85,0.8359,0.2252,0.5217,-0.207,0.311,-0.254,-55.43,23.33,0.06,-2.18,-2.24
9434,1446.52,1482.78,1477.14,0.0627,0.0361,1.1956,-0.025,0.030,0.036,-2.85,1.82,0.1987,-0.5684,0.8157,-0.024,0.007,-0.211,-11.39,-34.85,0.8345,0.2278,0.5189,-0.115,0.220,-0.269,-55.43,23.34,0.06,-2.18,-2.25
9448,1456.19,1549.67,1516.63,0.0608,0.0386,1.1948,0.036,-0.031,0.051,-2.85,1.82,0.1975,-0.5688,0.8081,-0.345,-0.009,-0.120,-11.39,-34.86,0.8337,0.2257,0.5219,0.022,0.388,-0.254,-55.43,23.34,0.06,-2.18,-2.25
9473,1437.66,1392.53,1407.84,0.0613,0.0405,1.1968,0.021,-0.092,-0.178,-2.85,1.82,0.2029,-0.5693,0.8203,0.434,-0.176,-0.456,-11.39,-34.85,0.8346,0.2260,0.5151,-0.146,0.220,-0.269,-55.44,23.34,0.06,-2.18,-2.25
9487,1457.00,1417.51,1431.21,0.0583,0.0408,1.1987,0.082,0.045,-0.071,-2.85,1.82,0.1982,-0.5732,0.8137,-0.192,0.068,-0.105,-11.39,-34.86,0.8330,0.2277,0.5205,-0.070,0.357,-0.284,-55.44,23.35,0.06,-2.18,-2.25
9512,1444.91,1511.79,1494.87,0.0620,0.0374,1.1963,-0.071,0.091,0.036,-2.85,1.82,0.1951,-0.5740,0.8184,0.342,-0.207,-0.334,-11.39,-34.85,0.8362,0.2264,0.5210,-0.039,0.418,-0.376,-55.44,23.35,0.07,-2.18,-2.25
9526,1419.93,1444.10,1443.30,0.0569,0.0393,1.1931,-0.056,-0.000,-0.071,-2.85,1.82,0.1990,-0.5710,0.8140,0.373,-0.344,-0.364,-11.39,-34.85,0.8326,0.2242,0.5222,-0.115,0.311,-0.315,-55.44,23.34,0.07,-2.18,-2.25
9551,1458.61,1482.78,1490.84,0.0583,0.0378,1.2012,-0.010,0.076,0.066,-2.84,1.82,0.2007,-0.5679,0.8096,-0.391,0.114,-0.028,-11.39,-34.87,0.8325,0.2255,0.5236,0.007,0.281,-0.437,-55.43,23.34,0.07,-2.18,-2.25
9565,1470.70,1534.36,1525.49,0.0598,0.0371,1.2053,-0.025,0.015,-0.071,-2.84,1.82,0.2034,-0.5720,0.8127,0.510,-0.314,-0.257,-11.40,-34.86,0.8330,0.2260,0.5280,0.007,0.388,-0.361,-55.43,23.34,0.07,-2.18,-2.25
9590,1425.57,1403.81,1427.18,0.0623,0.0376,1.1934,0.067,-0.031,0.036,-2.85,1.82,0.1975,-0.5706,0.8220,-0.314,0.251,-0.120,-11.39,-34.87,0.8353,0.2258,0.5170,0.007,0.342,-0.315,-55.43,23.35,0.07,-2.18,-2.25
9604,1436.85,1411.06,1436.04,0.0566,0.0361,1.1936,0.005,-0.123,0.051,-2.85,1.82,0.1973,-0.5715,0.8186,-0.253,-0.054,-0.166,-11.38,-34.87,0.8328,0.2280,0.5229,-0.085,0.113,-0.330,-55.43,23.35,0.07,-2.18,-2.25
9629,1443.30,1499.71,1498.10,0.0610,0.0393,1.1868,-0.010,0.030,0.005,-2.85,1.82,0.2012,-0.5718,0.8186,0.266,-0.085,-0.349,-11.39,-34.87,0.8350,0.2281,0.5221,-0.115,0.418,-0.178,-55.43,23.35,0.07,-2.18,-2.25
9643,1416.70,1430.40,1431.21,0.0635,0.0425,1.2053,-0.040,-0.000,0.081,-2.85,1.82,0.2019,-0.5710,0.8162,-0.207,0.114,0.018,-11.39,-34.87,0.8348,0.2255,0.5251,0.007,0.311,-0.178,-55.43,23.35,0.07,-2.18,-2.25
9668,1485.20,1482.78,1475.53,0.0576,0.0393,1.1941,-0.056,-0.077,0.127,-2.85,1.82,0.1992,-0.5674,0.8159,0.541,-0.207,-0.440,-11.39,-34.86,0.8345,0.2273,0.5267,-0.115,0.189,-0.208,-55.42,23.35,0.07,-2.18,-2.25
9682,1486.81,1544.03,1486.81,0.0574,0.0371,1.1968,-0.071,0.106,-0.010,-2.85,1.82,0.2034,-0.5723,0.8196,-0.070,-0.100,-0.242,-11.39,-34.86,0.8363,0.2274,0.5182,-0.115,0.296,-0.269,-55.43,23.35,0.07,-2.18,-2.25
9707,1444.10,1393.33,1417.51,0.0583,0.0369,1.1948,0.005,-0.031,0.020,-2.85,1.82,0.2007,-0.5713,0.8149,0.022,0.114,-0.272,-11.39,-34.87,0.8320,0.2286,0.5225,0.007,0.357,-0.254,-55.42,23.36,0.07,-2.18,-2.25
9721,1451.36,1405.42,1394.14,0.0576,0.0391,1.1914,-0.056,-0.031,-0.010,-2.85,1.82,0.1982,-0.5715,0.8223,0.510,-0.344,-0.456,-11.39,-34.86,0.8322,0.2275,0.5245,-0.115,0.189,-0.345,-55.42,23.36,0.07,-2.18,-2.25
9746,1433.63,1514.21,1491.65,0.0571,0.0371,1.1885,0.036,-0.016,0.020,-2.84,1.82,0.1975,-0.5701,0.8140,-0.299,0.190,-0.059,-11.38,-34.87,0.8318,0.2263,0.5205,-0.100,0.540,-0.330,-55.41,23.36,0.07,-2.18,-2.25
9760,1430.40,1457.80,1477.95,0.0591,0.0383,1.1958,-0.101,-0.031,-0.087,-2.84,1.82,0.2000,-0.5742,0.8169,0.022,-0.100,-0.196,-11.38,-34.87,0.8336,0.2262,0.5233,0.190,0.266,-0.376,-55.42,23.36,0.07,-2.18,-2.25
9785,1449.74,1465.86,1457.00,0.0613,0.0410,1.2007,0.051,0.076,0.005,-2.84,1.82,0.1990,-0.5703,0.8098,0.205,-0.115,-0.242,-11.39,-34.87,0.8335,0.2256,0.5219,-0.146,0.464,-0.239,-55.41,23.36,0.07,-2.18,-2.25
9799,1465.86,1523.08,1510.18,0.0579,0.0388,1.1917,0.005,0.015,-0.087,-2.84,1.82,0.2021,-0.5718,0.8130,-0.543,0.205,0.140,-11.39,-34.88,0.8339,0.2250,0.5222,0.037,0.342,-0.407,-55.41,23.36,0.07,-2.18,-2.25
9814,1482.78,1547.25,1495.68,0.0596,0.0398,1.1995,0.051,-0.000,0.051,-2.84,1.83,0.1995,-0.5718,0.8091,0.419,-0.131,-0.349,-11.39,-34.89,0.8348,0.2251,0.5220,0.068,0.220,-0.284,-55.41,23.36,0.07,-2.18,-2.25
9838,1444.10,1400.59,1430.40,0.0605,0.0347,1.1885,0.036,-0.031,-0.102,-2.84,1.82,0.2021,-0.5681,0.8132,-0.223,0.251,-0.043,-11.38,-34.89,0.8314,0.2258,0.5212,-0.070,0.220,-0.193,-55.41,23.36,0.07,-2.17,-2.25
9853,1464.25,1430.40,1445.71,0.0574,0.0383,1.1970,-0.163,-0.031,-0.056,-2.84,1.82,0.1968,-0.5730,0.8120,-0.497,-0.009,0.018,-11.38,-34.91,0.8351,0.2267,0.5203,0.053,0.372,-0.208,-55.42,23.36,0.08,-2.17,-2.25
9877,1449.74,1477.95,1485.20,0.0593,0.0415,1.1948,0.036,0.106,0.066,-2.84,1.83,0.1978,-0.5669,0.8203,0.510,-0.207,-0.471,-11.38,-34.89,0.8311,0.2240,0.5215,-0.115,0.372,-0.193,-55.41,23.36,0.08,-2.17,-2.25
9892,1432.01,1414.29,1431.21,0.0610,0.0381,1.1975,-0.132,-0.062,-0.041,-2.84,1.83,0.2024,-0.5701,0.8142,-0.421,0.159,0.063,-11.38,-34.90,0.8351,0.2240,0.5211,-0.115,0.052,-0.300,-55.42,23.35,0.08,-2.17,-2.25
9916,1482.78,1542.42,1508.57,0.0620,0.0371,1.1970,0.067,0.030,-0.041,-2.84,1.83,0.1975,-0.5703,0.8147,0.693,-0.192,-0.425,-11.38,-34.88,0.8337,0.2258,0.5210,-0.070,0.327,-0.300,-55.42,23.35,0.08,-2.17,-2.25
9931,1478.75,1512.60,1509.38,0.0591,0.0369,1.2021,-0.071,-0.000,0.036,-2.84,1.82,0.2002,-0.5706,0.8164,0.067,-0.176,-0.318,-11.39,-34.88,0.8334,0.2242,0.5204,0.007,0.296,-0.376,-55.42,23.35,0.08,-2.17,-2.25
9955,1451.36,1392.53,1394.95,0.0593,0.0374,1.1995,-0.010,0.015,0.036,-2.84,1.82,0.1995,-0.5740,0.8145,0.098,0.129,-0.242,-11.38,-34.89,0.8354,0.2256,0.5212,-0.024,0.372,-0.345,-55.42,23.35,0.08,-2.17,-2.25
9970,1457.00,1454.58,1432.01,0.0610,0.0371,1.1924,0.051,-0.016,-0.025,-2.84,1.82,0.1958,-0.5706,0.8186,0.617,-0.329,-0.456,-11.38,-34.88,0.8324,0.2264,0.5217,0.007,0.449,-0.468,-55.42,23.35,0.08,-2.17,-2.25
9994,1436.04,1495.68,1473.11,0.0593,0.0366,1.1958,0.097,-0.000,-0.087,-2.84,1.82,0.1973,-0.5718,0.8179,-0.101,0.373,-0.059,-11.37,-34.88,0.8334,0.2258,0.5236,-0.161,0.479,-0.284,-55.41,23.35,0.08,-2.17,-2.25
10009,1431.21,1411.87,1447.33,0.0627,0.0396,1.2009,0.021,0.015,-0.010,-2.85,1.82,0.1975,-0.5657,0.8132,0.037,-0.054,-0.196,-11.37,-34.88,0.8361,0.2241,0.5206,0.022,0.204,-0.300,-55.42,23.35,0.08,-2.17,-2.25
10033,1469.89,1511.79,1495.68,0.0642,0.0378,1.1946,-0.071,-0.000,0.036,-2.85,1.82,0.2021,-0.5698,0.8206,0.113,0.037,-0.303,-11.37,-34.87,0.8358,0.2251,0.5179,-0.192,-0.025,-0.162,-55.43,23.35,0.08,-2.17,-2.25
10047,1444.10,1560.15,1508.57,0.0591,0.0339,1.2019,-0.025,-0.000,0.081,-2.85,1.82,0.1973,-0.5691,0.8140,-0.162,0.190,-0.105,-11.36,-34.88,0.8330,0.2271,0.5215,-0.100,0.388,-0.208,-55.43,23.35,0.08,-2.17,-2.26
10072,1449.74,1391.72,1414.29,0.0583,0.0356,1.1919,-0.056,-0.046,0.097,-2.85,1.81,0.2012,-0.5757,0.8198,0.525,-0.146,-0.486,-11.37,-34.87,0.8340,0.2255,0.5176,-0.176,0.327,-0.239,-55.43,23.35,0.09,-2.17,-2.26
10087,1424.76,1434.43,1425.57,0.0596,0.0376,1.1917,0.082,-0.016,-0.025,-2.85,1.82,0.2024,-0.5732,0.8115,-0.009,0.114,-0.120,-11.37,-34.88,0.8362,0.2227,0.5201,-0.054,0.327,-0.269,-55.43,23.35,0.09,-2.17,-2.26
10111,1424.76,1491.65,1451.36,0.0615,0.0396,1.2039,-0.071,-0.000,0.036,-2.85,1.82,0.1968,-0.5728,0.8203,0.235,-0.329,-0.334,-11.37,-34.87,0.8363,0.2230,0.5265,-0.024,0.311,-0.284,-55.43,23.34,0.09,-2.17,-2.26
10126,1444.10,1400.59,1401.39,0.0586,0.0359,1.1902,0.036,-0.016,0.097,-2.85,1.81,0.2019,-0.5740,0.8203,0.510,-0.100,-0.379,-11.37,-34.87,0.8345,0.2246,0.5198,0.068,0.342,-0.437,-55.43,23.34,0.09,-2.17,-2.26
10150,1466.67,1502.93,1478.75,0.0608,0.0378,1.2014,0.036,0.030,-0.041,-2.85,1.81,0.1946,-0.5686,0.8149,-0.131,-0.009,-0.120,-11.37,-34.87,0.8369,0.2252,0.5242,-0.085,0.235,-0.254,-55.43,23.33,0.09,-2.17,-2.26
10165,1453.77,1538.39,1519.05,0.0562,0.0396,1.1970,0.036,-0.062,0.005,-2.85,1.82,0.1978,-0.5701,0.8140,0.632,-0.115,-0.379,-11.37,-34.86,0.8324,0.2266,0.5209,-0.131,0.449,-0.315,-55.43,23.34,0.09,-2.17,-2.26
10189,1409.45,1397.36,1426.37,0.0564,0.0400,1.1992,-0.040,0.045,0.020,-2.85,1.82,0.1987,-0.5735,0.8152,-0.314,-0.024,-0.074,-11.36,-34.88,0.8340,0.2266,0.5168,-0.009,0.388,-0.391,-55.43,23.34,0.09,-2.17,-2.27
10204,1431.21,1405.42,1431.21,0.0598,0.0374,1.1868,0.021,0.030,0.005,-2.85,1.82,0.1970,-0.5715,0.8179,0.174,0.022,-0.150,-11.36,-34.88,0.8329,0.2266,0.5231,-0.131,0.220,-0.361,-55.43,23.34,0.09,-2.17,-2.27
10228,1448.94,1520.66,1510.18,0.0564,0.0388,1.2070,-0.086,-0.077,0.036,-2.84,1.82,0.1997,-0.5730,0.8120,0.296,-0.253,-0.425,-11.37,-34.88,0.8351,0.2252,0.5190,-0.085,0.098,-0.361,-55.44,23.34,0.09,-2.18,-2.27
10243,1441.69,1444.10,1449.74,0.0603,0.0334,1.1946,-0.040,0.015,0.112,-2.85,1.81,0.1965,-0.5720,0.8174,-0.177,0.236,-0.013,-11.36,-34.88,0.8345,0.2263,0.5187,-0.024,0.266,-0.254,-55.45,23.35,0.09,-2.18,-2.27
10267,1469.89,1497.29,1464.25,0.0579,0.0352,1.1931,-0.040,-0.062,-0.010,-2.85,1.81,0.2014,-0.5715,0.8147,0.312,-0.375,-0.501,-11.37,-34.88,0.8370,0.2251,0.5216,-0.039,0.266,-0.162,-55.45,23.35,0.09,-2.18,-2.27
10282,1457.00,1524.69,1512.60,0.0562,0.0356,1.1951,-0.040,-0.000,-0.102,-2.84,1.81,0.2000,-0.5715,0.8152,0.357,-0.161,-0.395,-11.37,-34.87,0.8361,0.2242,0.5242,-0.024,0.464,-0.178,-55.45,23.34,0.09,-2.18,-2.27
10306,1426.37,1407.03,1403.81,0.0620,0.0386,1.1917,0.051,0.045,-0.010,-2.84,1.81,0.1985,-0.5703,0.8127,-0.085,-0.009,-0.272,-11.37,-34.88,0.8352,0.2231,0.5182,-0.070,0.388,-0.315,-55.45,23.34,0.09,-2.18,-2.28
10321,1431.21,1427.18,1401.39,0.0571,0.0386,1.1919,0.021,0.061,0.173,-2.84,1.81,0.2000,-0.5750,0.8210,0.617,-0.405,-0.486,-11.37,-34.87,0.8353,0.2252,0.5232,-0.146,0.281,-0.300,-55.45,23.34,0.09,-2.18,-2.28
10346,1431.21,1544.84,1494.87,0.0601,0.0374,1.1968,0.005,0.076,0.066,-2.84,1.81,0.1968,-0.5679,0.8135,-0.482,0.266,0.109,-11.36,-34.89,0.8346,0.2255,0.5189,-0.009,0.235,-0.498,-55.45,23.34,0.09,-2.18,-2.28
10360,1423.96,1444.10,1452.97,0.0579,0.0391,1.1978,-0.117,0.122,0.051,-2.84,1.81,0.1968,-0.5735,0.8110,0.113,-0.024,-0.196,-11.36,-34.89,0.8340,0.2283,0.5199,0.007,0.311,-0.315,-55.45,23.35,0.09,-2.19,-2.28
10374,1436.85,1430.40,1428.79,0.0601,0.0386,1.1948,-0.025,-0.016,0.066,-2.84,1.81,0.2019,-0.5657,0.8218,0.754,-0.405,-0.669,-11.37,-34.87,0.8356,0.2260,0.5231,-0.253,0.296,-0.223,-55.45,23.34,0.09,-2.19,-2.28
10399,1470.70,1531.94,1514.21,0.0581,0.0396,1.1975,-0.086,-0.062,0.081,-2.84,1.81,0.1970,-0.5747,0.8167,-0.665,0.282,0.155,-11.36,-34.90,0.8334,0.2277,0.5227,0.282,0.296,-0.407,-55.45,23.35,0.09,-2.19,-2.28
10414,1468.28,1543.22,1510.18,0.0588,0.0374,1.2021,-0.010,-0.092,0.081,-2.84,1.81,0.1958,-0.5752,0.8179,0.571,-0.299,-0.501,-11.36,-34.89,0.8370,0.2266,0.5248,-0.115,0.189,-0.376,-55.45,23.35,0.09,-2.19,-2.28
10438,1436.04,1418.32,1413.48,0.0583,0.0388,1.2012,-0.040,0.015,0.081,-2.84,1.81,0.2000,-0.5696,0.8208,-0.330,0.220,-0.043,-11.35,-34.90,0.8331,0.2252,0.5205,-0.100,0.006,-0.300,-55.46,23.35,0.10,-2.19,-2.29
10453,1452.97,1448.94,1431.21,0.0593,0.0356,1.2012,-0.025,-0.016,0.112,-2.84,1.80,0.1963,-0.5732,0.8049,-0.375,0.159,-0.043,-11.35,-34.91,0.8374,0.2250,0.5200,0.098,0.311,-0.269,-55.46,23.35,0.10,-2.19,-2.29
10477,1432.01,1469.08,1473.11,0.0593,0.0413,1.1970,-0.025,0.045,-0.102,-2.84,1.81,0.2014,-0.5710,0.8157,0.556,-0.299,-0.425,-11.36,-34.90,0.8319,0.2257,0.5210,-0.192,0.388,-0.055,-55.46,23.35,0.10,-2.20,-2.29
10491,1422.34,1435.24,1427.18,0.0625,0.0339,1.1975,-0.010,-0.000,-0.010,-2.84,1.80,0.1978,-0.5718,0.8164,-0.589,0.297,0.109,-11.35,-34.91,0.8337,0.2258,0.5188,-0.009,0.296,-0.223,-55.46,23.35,0.10,-2.20,-2.29
10516,1473.11,1540.00,1472.31,0.0610,0.0386,1.1941,-0.056,-0.031,0.143,-2.84,1.80,0.1980,-0.5691,0.8162,0.785,-0.253,-0.563,-11.35,-34.89,0.8342,0.2239,0.5233,-0.009,0.449,-0.330,-55.45,23.35,0.10,-2.20,-2.30
10531,1459.41,1547.25,1519.05,0.0598,0.0364,1.1948,-0.117,-0.046,-0.010,-2.84,1.80,0.2012,-0.5688,0.8203,0.342,-0.146,-0.272,-11.36,-34.89,0.8345,0.2252,0.5240,-0.192,0.281,-0.345,-55.45,23.34,0.10,-2.20,-2.30
10555,1444.10,1423.15,1431.21,0.0620,0.0364,1.1951,0.005,-0.046,0.051,-2.85,1.80,0.1982,-0.5718,0.8140,-0.024,0.083,-0.135,-11.35,-34.89,0.8344,0.2262,0.5203,0.022,0.235,-0.376,-55.46,23.35,0.10,-2.20,-2.30
10570,1457.80,1441.69,1440.07,0.0576,0.0391,1.1926,-0.117,0.030,-0.132,-2.84,1.80,0.1975,-0.5703,0.8125,0.556,-0.467,-0.440,-11.36,-34.89,0.8340,0.2278,0.5220,-0.039,0.357,-0.345,-55.45,23.35,0.10,-2.20,-2.30
10594,1435.24,1492.45,1486.81,0.0588,0.0391,1.1946,0.082,0.061,0.081,-2.84,1.80,0.1970,-0.5684,0.8184,-0.391,0.129,0.124,-11.35,-34.89,0.8346,0.2249,0.5226,-0.131,0.311,-0.208,-55.45,23.35,0.10,-2.20,-2.30
10609,1431.21,1427.18,1412.67,0.0618,0.0359,1.1902,0.005,-0.000,-0.010,-2.84,1.80,0.1970,-0.5730,0.8103,0.022,-0.024,-0.242,-11.35,-34.90,0.8317,0.2239,0.5179,0.205,0.327,-0.345,-55.46,23.35,0.10,-2.20,-2.30
10633,1470.70,1521.47,1508.57,0.0613,0.0386,1.1929,-0.056,0.061,0.036,-2.85,1.80,0.2021,-0.5684,0.8193,0.312,-0.024,-0.318,-11.35,-34.89,0.8341,0.2262,0.5221,-0.283,0.464,-0.269,-55.45,23.35,0.10,-2.20,-2.30
10648,1451.36,1520.66,1481.17,0.0615,0.0405,1.1968,0.051,0.045,-0.010,-2.85,1.80,0.1956,-0.5706,0.8074,-0.589,0.404,0.186,-11.34,-34.91,0.8342,0.2271,0.5188,0.037,0.113,-0.300,-55.46,23.35,0.11,-2.20,-2.31
10672,1403.00,1402.20,1386.89,0.0586,0.0393,1.1982,-0.040,-0.016,0.081,-2.85,1.81,0.1963,-0.5674,0.8171,0.861,-0.528,-0.593,-11.35,-34.88,0.8346,0.2264,0.5220,-0.024,0.266,-0.193,-55.45,23.35,0.11,-2.20,-2.31
10687,1459.41,1415.09,1430.40,0.0579,0.0381,1.1931,0.005,-0.000,0.173,-2.84,1.81,0.2012,-0.5681,0.8167,0.022,0.068,-0.166,-11.35,-34.88,0.8333,0.2236,0.5234,-0.207,0.342,-0.132,-55.45,23.35,0.11,-2.20,-2.31
10711,1427.18,1512.60,1515.02,0.0586,0.0420,1.1997,0.005,0.045,-0.071,-2.84,1.81,0.1941,-0.5713,0.8125,0.159,-0.131,-0.303,-11.35,-34.88,0.8335,0.2255,0.5239,0.098,0.311,-0.361,-55.45,23.35,0.11,-2.20,-2.31
10726,1439.27,1455.38,1444.91,0.0593,0.0403,1.1951,-0.040,-0.031,0.020,-2.84,1.81,0.2036,-0.5698,0.8184,0.754,-0.299,-0.501,-11.36,-34.87,0.8391,0.2283,0.5199,-0.070,0.311,-0.391,-55.45,23.35,0.11,-2.20,-2.31
10751,1473.11,1495.68,1502.12,0.0581,0.0391,1.1875,-0.010,0.061,-0.056,-2.84,1.81,0.1965,-0.5693,0.8171,-0.513,0.282,-0.028,-11.35,-34.88,0.8351,0.2217,0.5204,-0.115,0.281,-0.437,-55.46,23.34,0.11,-2.20,-2.31
10765,1473.11,1547.25,1519.05,0.0554,0.0361,1.1987,-0.010,0.030,0.081,-2.84,1.81,0.1970,-0.5730,0.8184,0.602,-0.176,-0.425,-11.35,-34.88,0.8347,0.2262,0.5195,0.083,0.311,-0.437,-55.46,23.35,0.11,-2.20,-2.31
10790,1444.10,1394.95,1406.23,0.0566,0.0393,1.1936,0.051,-0.000,-0.071,-2.83,1.81,0.2019,-0.5688,0.8169,-0.314,0.098,-0.150,-11.35,-34.88,0.8322,0.2272,0.5222,-0.100,0.159,-0.284,-55.46,23.35,0.11,-2.20,-2.31
10804,1444.10,1398.17,1410.26,0.0610,0.0352,1.1960,-0.040,-0.000,0.051,-2.84,1.81,0.1978,-0.5759,0.8057,-0.299,0.114,-0.135,-11.34,-34.90,0.8348,0.2277,0.5221,-0.039,0.388,-0.239,-55.46,23.35,0.11,-2.20,-2.31
10829,1451.36,1525.49,1523.08,0.0608,0.0417,1.1973,0.021,-0.000,0.066,-2.84,1.81,0.1992,-0.5728,0.8196,0.571,-0.329,-0.501,-11.35,-34.89,0.8350,0.2239,0.5227,-0.039,0.174,-0.330,-55.46,23.35,0.11,-2.21,-2.31
10843,1430.40,1469.08,1457.00,0.0581,0.0361,1.1934,-0.025,0.030,-0.056,-2.84,1.81,0.2019,-0.5698,0.8254,-0.375,0.190,0.048,-11.35,-34.89,0.8340,0.2261,0.5167,-0.207,0.266,-0.269,-55.46,23.35,0.11,-2.21,-2.32
10868,1459.41,1483.59,1465.86,0.0569,0.0408,1.1929,0.036,-0.046,0.020,-2.83,1.82,0.1982,-0.5701,0.8154,0.510,-0.344,-0.700,-11.35,-34.88,0.8350,0.2273,0.5206,-0.161,0.311,-0.269,-55.46,23.35,0.11,-2.21,-2.32
10882,1472.31,1563.37,1523.88,0.0598,0.0391,1.1943,0.051,-0.000,-0.041,-2.83,1.82,0.2039,-0.5701,0.8127,0.327,0.053,-0.318,-11.36,-34.88,0.8319,0.2239,0.5238,-0.070,0.174,-0.223,-55.46,23.35,0.11,-2.21,-2.32
10906,1452.16,1398.17,1412.67,0.0603,0.0354,1.1973,0.036,-0.000,-0.102,-2.84,1.82,0.1965,-0.5706,0.8120,-0.116,-0.070,-0.105,-11.36,-34.88,0.8324,0.2242,0.5211,-0.146,0.235,-0.193,-55.46,23.34,0.11,-2.21,-2.32
10921,1436.04,1390.11,1414.29,0.0576,0.0383,1.1997,-0.040,0.076,-0.056,-2.83,1.82,0.1985,-0.5735,0.8147,0.663,-0.268,-0.486,-11.36,-34.88,0.8350,0.2235,0.5223,-0.054,0.342,-0.300,-55.46,23.34,0.11,-2.21,-2.32
10945,1465.86,1546.45,1507.77,0.0581,0.0361,1.1934,0.051,-0.077,-0.010,-2.83,1.82,0.2004,-0.5698,0.8125,-0.391,0.098,0.033,-11.36,-34.89,0.8333,0.2233,0.5187,0.053,0.327,-0.345,-55.46,23.34,0.11,-2.21,-2.32
10960,1425.57,1454.58,1442.49,0.0642,0.0376,1.1995,-0.040,0.091,-0.041,-2.84,1.82,0.1960,-0.5703,0.8105,-0.039,0.098,-0.166,-11.35,-34.90,0.8333,0.2261,0.5232,0.022,0.250,-0.407,-55.46,23.34,0.11,-2.21,-2.32
10984,1444.10,1481.98,1448.94,0.0588,0.0408,1.1941,0.082,-0.000,0.051,-2.84,1.82,0.2012,-0.5674,0.8240,0.388,-0.283,-0.303,-11.36,-34.88,0.8325,0.2261,0.5199,-0.161,0.433,-0.315,-55.46,23.34,0.11,-2.21,-2.32
10999,1482.78,1549.67,1509.38,0.0562,0.0376,1.1951,-0.071,0.091,0.005,-2.83,1.82,0.1958,-0.5742,0.8127,-0.543,0.495,0.063,-11.35,-34.90,0.8312,0.2250,0.5176,0.022,0.220,-0.361,-55.46,23.34,0.11,-2.21,-2.32
