timestamp_ms,EMG_Quad_mV,EMG_Ham_mV,EMG_Calf_mV,ACC_Quad_X_g,ACC_Quad_Y_g,ACC_Quad_Z_g,GYR_Quad_X_dps,GYR_Quad_Y_dps,GYR_Quad_Z_dps,Pitch_Quad_deg,Roll_Quad_deg,ACC_Ham_X_g,ACC_Ham_Y_g,ACC_Ham_Z_g,GYR_Ham_X_dps,GYR_Ham_Y_dps,GYR_Ham_Z_dps,Pitch_Ham_deg,Roll_Ham_deg,ACC_Calf_X_g,ACC_Calf_Y_g,ACC_Calf_Z_g,GYR_Calf_X_dps,GYR_Calf_Y_dps,GYR_Calf_Z_dps,Pitch_Calf_deg,Roll_Calf_deg,Angle_Quad_Ham_deg,Angle_Quad_Calf_deg,Angle_Ham_Calf_deg
5,2169.38,1998.53,1950.99,0.0413,0.0403,1.2273,-0.005,-0.755,0.124,-2.25,1.86,0.1624,-0.6121,0.7996,-1.810,-0.348,-0.211,-10.76,-36.59,0.9008,0.0952,0.4103,-2.882,-9.110,13.220,-64.85,13.55,0.14,-0.21,-0.36
20,1611.72,1469.89,1517.44,0.0405,0.0469,1.1941,-0.112,-0.480,-0.457,-2.25,1.86,0.2048,-0.5918,0.8164,1.518,-4.348,-2.684,-10.84,-36.56,0.9512,0.0221,0.3678,-1.676,-6.804,9.510,-65.03,13.33,0.27,-0.43,-0.70
35,1104.84,1001.68,1095.97,0.0554,0.0417,1.2095,-0.005,0.222,0.383,-2.26,1.87,0.2051,-0.5928,0.7932,-3.871,1.317,1.148,-10.84,-36.62,0.8734,0.0298,0.3667,0.217,-2.453,1.296,-65.11,13.16,0.39,-0.63,-1.02
60,1923.59,2020.29,1897.00,0.0532,0.0425,1.1968,-0.066,-0.419,-0.716,-2.27,1.87,0.1882,-0.5916,0.7864,5.091,0.797,-0.699,-10.82,-36.50,0.8940,0.0552,0.3516,3.194,6.814,-7.956,-65.01,13.15,0.50,-0.81,-1.31
74,2370.84,2282.20,2146.01,0.0457,0.0552,1.1887,0.132,-0.099,0.353,-2.27,1.88,0.1968,-0.5652,0.8174,6.556,-1.035,-1.936,-10.84,-36.37,0.8944,0.1102,0.4028,0.461,8.524,-10.490,-64.88,13.20,0.61,-0.97,-1.57
89,2200.81,1998.53,1970.33,0.0469,0.0449,1.2048,-0.082,-0.190,-0.105,-2.27,1.89,0.2007,-0.5845,0.8252,-4.406,-1.004,0.293,-10.86,-36.41,0.9563,0.1205,0.4263,4.766,9.074,-10.230,-64.76,13.32,0.70,-1.11,-1.81
113,796.19,1016.19,1046.01,0.0513,0.0371,1.2012,-0.036,0.344,-0.182,-2.27,1.89,0.1885,-0.6182,0.7756,-5.459,-1.187,0.675,-10.89,-36.59,0.9521,0.1802,0.4774,2.400,1.516,-3.605,-64.66,13.52,0.79,-1.23,-2.02
128,1302.27,1520.66,1468.28,0.0513,0.0383,1.2039,0.086,0.131,-0.136,-2.27,1.89,0.2007,-0.5991,0.7964,5.503,-0.027,-1.279,-10.90,-36.52,0.9169,0.1932,0.4797,-1.951,-0.301,0.273,-64.59,13.67,0.87,-1.34,-2.21
143,2004.18,2081.54,1960.66,0.0464,0.0381,1.1985,-0.036,0.421,-0.090,-2.26,1.88,0.1992,-0.5835,0.8140,6.862,2.156,-1.172,-10.88,-36.40,0.9470,0.1772,0.4637,-2.119,-7.568,7.159,-64.65,13.78,0.94,-1.45,-2.39
168,909.82,865.49,992.82,0.0422,0.0281,1.1917,-0.082,0.085,-0.014,-2.26,1.87,0.1704,-0.5923,0.7910,-3.367,0.752,1.591,-10.84,-36.49,0.9161,0.1273,0.4131,-4.485,-9.491,11.770,-64.88,13.74,1.01,-1.56,-2.57
182,644.69,779.27,890.48,0.0469,0.0278,1.1968,-0.127,-0.053,-0.075,-2.26,1.86,0.1819,-0.5967,0.7932,-4.070,-4.073,-0.638,-10.89,-36.56,0.9095,0.0642,0.3599,-1.631,-10.545,11.586,-65.10,13.64,1.08,-1.68,-2.76
197,773.63,1031.50,1070.18,0.0398,0.0315,1.1855,-0.021,-0.266,0.185,-2.25,1.85,0.1929,-0.6003,0.7915,-3.764,-1.783,-0.180,-10.91,-36.62,0.9055,0.0330,0.3438,-2.608,-4.178,6.075,-65.24,13.44,1.13,-1.81,-2.94
222,2137.95,1894.58,1869.60,0.0515,0.0388,1.2000,0.025,-0.037,0.078,-2.26,1.85,0.1831,-0.6008,0.7852,4.648,1.194,-0.928,-10.88,-36.53,0.9196,0.0188,0.3300,1.224,4.722,-4.353,-65.22,13.27,1.19,-1.92,-3.11
236,1385.27,1237.00,1336.12,0.0469,0.0383,1.2026,-0.005,-0.389,0.185,-2.26,1.85,0.1843,-0.5876,0.8125,6.175,0.385,-1.325,-10.86,-36.42,0.8958,0.0615,0.3735,2.782,8.081,-9.314,-65.15,13.23,1.24,-2.02,-3.27
251,872.75,853.41,997.66,0.0464,0.0342,1.2009,0.025,-0.190,-0.289,-2.27,1.85,0.1863,-0.5815,0.8164,-1.413,-0.180,0.049,-10.86,-36.43,0.9347,0.0861,0.3986,3.301,10.280,-11.543,-65.02,13.26,1.29,-2.11,-3.40
276,2170.18,2194.36,2016.26,0.0493,0.0408,1.1980,-0.021,-0.053,-0.044,-2.27,1.85,0.1917,-0.6021,0.7839,-4.268,-1.523,0.721,-10.90,-36.55,0.9374,0.1697,0.4633,2.889,5.669,-8.200,-64.83,13.46,1.34,-2.17,-3.51
290,2566.67,2332.97,2179.85,0.0505,0.0420,1.1990,-0.036,0.008,-0.243,-2.27,1.85,0.1973,-0.5918,0.7930,2.327,0.080,-0.974,-10.90,-36.52,0.9285,0.1971,0.4780,0.354,3.409,-4.582,-64.70,13.65,1.38,-2.22,-3.60
305,2197.58,1930.04,1896.19,0.0442,0.0444,1.2014,-0.021,0.069,0.001,-2.27,1.86,0.1907,-0.5823,0.8022,4.694,1.988,-0.348,-10.87,-36.44,0.9268,0.2018,0.4852,-1.218,-3.858,3.724,-64.67,13.81,1.42,-2.27,-3.69
330,734.95,1018.61,1077.44,0.0474,0.0405,1.2029,-0.005,0.008,-0.014,-2.27,1.86,0.1843,-0.5806,0.8027,-0.971,-0.577,0.278,-10.88,-36.46,0.9180,0.1538,0.4424,-3.875,-8.148,11.159,-64.84,13.82,1.45,-2.32,-3.78
344,1412.67,1646.37,1585.93,0.0464,0.0376,1.1980,0.040,0.069,-0.105,-2.26,1.86,0.1941,-0.5901,0.8069,-5.673,-2.225,0.476,-10.92,-36.53,0.9209,0.0876,0.3972,-2.455,-10.911,12.548,-65.02,13.76,1.49,-2.38,-3.87
369,1276.48,1153.19,1263.59,0.0471,0.0422,1.1987,-0.051,-0.114,-0.136,-2.27,1.86,0.1887,-0.6047,0.7856,0.266,0.706,-0.104,-10.90,-36.55,0.8978,0.0341,0.3575,-1.646,-6.270,6.548,-65.23,13.55,1.52,-2.46,-3.97
384,713.19,777.66,940.44,0.0461,0.0444,1.1985,0.010,-0.160,0.047,-2.27,1.86,0.1868,-0.5913,0.7969,6.663,0.996,-1.356,-10.88,-36.45,0.8978,0.0244,0.3336,-0.058,0.096,-0.765,-65.32,13.36,1.55,-2.53,-4.08
398,554.43,753.48,898.53,0.0444,0.0408,1.1960,0.040,-0.205,0.124,-2.27,1.87,0.1921,-0.5820,0.8125,3.365,0.782,-0.684,-10.87,-36.39,0.9017,0.0428,0.3529,1.698,4.783,-5.742,-65.31,13.26,1.57,-2.60,-4.18
423,2573.92,2269.30,2144.40,0.0413,0.0364,1.1926,-0.082,-0.190,-0.060,-2.27,1.86,0.1843,-0.5967,0.7878,-6.238,-1.523,0.889,-10.90,-36.55,0.9181,0.1071,0.4086,2.354,10.585,-11.116,-65.06,13.35,1.60,-2.65,-4.25
438,1910.70,1681.03,1689.08,0.0356,0.0291,1.1924,-0.097,-0.282,0.032,-2.26,1.85,0.1809,-0.6099,0.7998,-2.528,-2.302,-0.119,-10.92,-36.61,0.9182,0.1451,0.4431,3.209,7.196,-9.040,-64.91,13.49,1.62,-2.68,-4.30
462,886.45,1237.00,1233.77,0.0483,0.0352,1.2041,-0.036,-0.358,-0.090,-2.27,1.85,0.1909,-0.5994,0.8022,2.999,2.370,-0.577,-10.86,-36.54,0.9265,0.1937,0.4822,1.148,0.417,-2.078,-64.82,13.68,1.64,-2.70,-4.35
477,1765.64,1907.47,1795.46,0.0542,0.0342,1.2097,-0.127,-0.312,-0.426,-2.28,1.84,0.1814,-0.5906,0.8030,2.083,1.576,-0.195,-10.82,-36.50,0.9332,0.1757,0.4540,-1.524,-4.163,3.800,-64.83,13.81,1.67,-2.73,-4.40
492,2561.83,2388.57,2179.05,0.0522,0.0381,1.2000,-0.127,-0.282,0.017,-2.29,1.84,0.1914,-0.5994,0.8018,-0.558,-2.042,-0.821,-10.85,-36.52,0.9310,0.1614,0.4384,-3.860,-6.957,7.479,-64.90,13.88,1.69,-2.75,-4.44
516,566.52,707.55,871.14,0.0520,0.0378,1.1958,0.010,0.161,0.032,-2.29,1.84,0.1934,-0.6040,0.7964,-6.589,0.171,1.225,-10.85,-36.69,0.9238,0.0892,0.3861,-2.424,-7.384,9.220,-65.12,13.81,1.71,-2.79,-4.50
531,539.93,819.56,936.41,0.0500,0.0322,1.1985,0.025,0.314,-0.197,-2.29,1.83,0.1877,-0.6108,0.7656,0.434,1.423,0.553,-10.83,-36.72,0.9053,0.0619,0.3678,-1.310,-5.033,6.792,-65.24,13.70,1.73,-2.83,-4.57
545,998.46,1340.95,1307.91,0.0491,0.0403,1.2043,0.010,0.192,-0.121,-2.28,1.83,0.1882,-0.5979,0.7993,9.778,1.072,-2.302,-10.81,-36.58,0.9115,0.0452,0.3508,-0.577,-1.064,2.105,-65.33,13.57,1.75,-2.88,-4.64
570,1673.77,1473.11,1534.36,0.0452,0.0454,1.2002,0.010,0.283,0.078,-2.27,1.84,0.1887,-0.5850,0.8108,-2.833,1.210,0.843,-10.78,-36.63,0.9011,0.0608,0.3801,1.545,5.257,-5.131,-65.23,13.52,1.77,-2.92,-4.69
585,958.17,892.09,1075.02,0.0437,0.0474,1.1960,0.025,0.085,-0.075,-2.27,1.85,0.1858,-0.5925,0.7927,-6.299,-1.325,1.057,-10.80,-36.73,0.9108,0.0930,0.4108,2.018,7.516,-7.635,-65.12,13.53,1.79,-2.95,-4.74
599,567.33,697.07,871.94,0.0483,0.0476,1.1990,0.071,-0.068,0.108,-2.27,1.86,0.1978,-0.5952,0.7993,-1.215,-2.424,-0.562,-10.84,-36.74,0.9065,0.1235,0.4374,2.140,6.203,-7.238,-65.00,13.60,1.81,-2.97,-4.77
624,2626.30,2378.10,2196.78,0.0476,0.0493,1.1980,-0.051,-0.190,0.078,-2.28,1.87,0.1907,-0.5903,0.7976,2.190,2.416,-0.012,-10.78,-36.69,0.9258,0.1654,0.4619,0.293,1.776,-2.750,-64.90,13.73,1.82,-2.97,-4.80
639,2316.04,2012.23,1973.55,0.0518,0.0427,1.1936,-0.036,-0.099,-0.151,-2.28,1.87,0.1826,-0.5920,0.8054,2.724,1.393,-0.577,-10.75,-36.64,0.9241,0.1683,0.4581,-0.150,-2.362,1.083,-64.87,13.86,1.84,-2.98,-4.82
653,1538.39,1375.60,1452.97,0.0493,0.0376,1.2017,-0.036,-0.114,-0.151,-2.28,1.87,0.1987,-0.5889,0.8083,-1.200,-1.966,-0.516,-10.79,-36.65,0.9314,0.1532,0.4432,-2.043,-4.484,5.205,-64.91,13.94,1.86,-2.99,-4.84
678,1170.92,1420.73,1392.53,0.0500,0.0312,1.1997,-0.097,-0.037,-0.075,-2.29,1.86,0.1877,-0.6145,0.7810,-7.032,-0.027,1.469,-10.79,-36.85,0.9268,0.1066,0.3990,-2.165,-6.881,7.250,-65.10,13.90,1.87,-3.01,-4.88
693,1942.12,2039.63,1898.61,0.0466,0.0305,1.1975,0.056,0.146,0.032,-2.28,1.85,0.1829,-0.6140,0.7791,2.831,0.431,-0.653,-10.78,-36.84,0.9130,0.0856,0.3726,-2.012,-5.659,6.121,-65.22,13.85,1.88,-3.04,-4.92
708,2527.18,2332.97,2214.51,0.0427,0.0327,1.1980,-0.051,0.069,0.078,-2.28,1.85,0.1885,-0.5950,0.8015,7.747,1.149,-1.447,-10.76,-36.72,0.9187,0.0675,0.3574,-0.730,-2.850,3.067,-65.33,13.78,1.90,-3.07,-4.97
733,615.68,738.97,863.88,0.0427,0.0347,1.1917,0.025,-0.175,-0.014,-2.28,1.84,0.1792,-0.5886,0.7981,-2.222,0.660,0.675,-10.73,-36.77,0.9076,0.0648,0.3701,1.133,2.753,-1.803,-65.30,13.73,1.91,-3.10,-5.01
747,692.23,937.22,991.21,0.0437,0.0381,1.1956,-0.051,-0.190,-0.029,-2.28,1.84,0.1877,-0.5930,0.8010,-3.367,-2.958,-0.378,-10.77,-36.81,0.9113,0.0801,0.3866,1.545,5.104,-4.505,-65.26,13.71,1.92,-3.12,-5.04
762,1199.12,1459.41,1419.93,0.0479,0.0432,1.2000,-0.097,-0.175,0.124,-2.28,1.84,0.1990,-0.5930,0.8074,-2.680,-2.134,-0.119,-10.81,-36.84,0.9158,0.0980,0.4122,1.957,6.020,-6.139,-65.17,13.73,1.93,-3.14,-5.07
787,1492.45,1328.06,1403.00,0.0525,0.0422,1.2031,0.010,-0.022,0.078,-2.28,1.85,0.1902,-0.5967,0.7937,3.472,2.187,-0.272,-10.76,-36.76,0.9208,0.1400,0.4454,0.995,3.944,-5.055,-65.03,13.83,1.94,-3.15,-5.08
801,865.49,838.10,1022.64,0.0510,0.0481,1.1975,-0.082,-0.114,0.093,-2.29,1.86,0.1921,-0.5825,0.8105,6.312,0.507,-1.600,-10.76,-36.65,0.9248,0.1600,0.4519,0.232,1.028,-2.230,-64.97,13.95,1.95,-3.15,-5.09
816,571.36,713.19,863.88,0.0525,0.0454,1.1934,-0.051,-0.037,0.017,-2.29,1.86,0.1960,-0.5774,0.8164,-0.894,-0.653,-0.272,-10.77,-36.63,0.9279,0.1589,0.4436,-0.684,-1.568,1.235,-64.95,14.05,1.96,-3.14,-5.10
840,2629.52,2333.77,2210.48,0.0481,0.0376,1.1968,0.102,-0.037,0.062,-2.30,1.86,0.1855,-0.6038,0.7805,-5.948,-0.897,1.072,-10.79,-36.80,0.9182,0.1350,0.4220,-1.508,-5.033,6.075,-65.06,14.09,1.96,-3.15,-5.11
855,2232.23,1923.59,1903.44,0.0481,0.0378,1.1934,0.025,-0.083,0.001,-2.30,1.86,0.1897,-0.5962,0.7817,2.724,-0.439,-1.050,-10.80,-36.77,0.9136,0.1051,0.4058,-1.951,-5.446,6.747,-65.14,14.07,1.97,-3.16,-5.13
870,1407.03,1266.01,1389.30,0.0461,0.0332,1.1943,-0.127,-0.236,0.017,-2.30,1.86,0.1936,-0.5874,0.8066,5.365,1.210,-1.157,-10.79,-36.68,0.9106,0.0818,0.3871,-1.279,-4.835,5.510,-65.24,14.01,1.98,-3.18,-5.16
895,1408.64,1656.04,1572.23,0.0574,0.0435,1.2246,0.010,-0.343,0.001,-2.31,1.86,0.1765,-0.6013,0.8091,-2.329,-0.531,0.507,-10.78,-36.73,0.9155,0.0613,0.3591,0.354,-1.217,0.044,-65.33,13.93,1.98,-3.20,-5.19
909,2282.20,2224.98,2062.20,0.0530,0.0369,1.2090,-0.036,-0.297,-0.090,-2.32,1.86,0.1963,-0.5872,0.7947,-4.329,-3.035,0.293,-10.83,-36.79,0.9098,0.0707,0.3660,0.904,2.539,-3.055,-65.34,13.89,1.99,-3.22,-5.21
924,2633.55,2338.61,2196.78,0.0510,0.0388,1.2041,-0.005,-0.251,-0.075,-2.33,1.86,0.1960,-0.6042,0.7942,-4.161,-1.050,0.492,-10.85,-36.86,0.9147,0.0955,0.3915,0.828,4.417,-5.360,-65.30,13.89,1.99,-3.24,-5.23
948,518.17,731.72,863.88,0.0505,0.0366,1.2017,-0.036,-0.160,0.017,-2.33,1.85,0.1909,-0.5959,0.7937,5.457,0.935,-1.249,-10.83,-36.73,0.9210,0.1310,0.4257,2.278,5.028,-5.574,-65.15,14.01,2.00,-3.24,-5.24
963,743.81,1070.18,1109.67,0.0496,0.0374,1.1958,0.040,-0.022,0.078,-2.33,1.85,0.1929,-0.5823,0.8081,4.007,0.568,-0.836,-10.83,-36.65,0.9304,0.1461,0.4425,0.889,3.379,-3.574,-65.07,14.11,2.00,-3.24,-5.24
978,1508.57,1711.65,1612.53,0.0476,0.0415,1.1965,0.056,0.115,0.200,-2.33,1.86,0.1875,-0.5867,0.8047,-2.742,0.141,0.568,-10.82,-36.68,0.9270,0.1566,0.4539,-0.211,0.478,-0.215,-65.01,14.21,2.00,-3.23,-5.24
1003,1236.19,1120.95,1237.00,0.0469,0.0410,1.2009,0.056,0.192,-0.182,-2.33,1.86,0.1855,-0.6028,0.7949,-2.207,-1.538,0.217,-10.85,-36.74,0.9272,0.1329,0.4352,-2.104,-4.316,4.945,-65.10,14.21,2.01,-3.23,-5.24
1017,700.29,769.60,921.10,0.0498,0.0396,1.2002,0.025,0.131,-0.090,-2.32,1.86,0.1956,-0.5979,0.8091,1.136,0.187,-0.226,-10.85,-36.72,0.9213,0.1182,0.4160,-1.722,-5.797,6.044,-65.18,14.22,2.01,-3.24,-5.25
1032,518.17,723.66,875.16,0.0488,0.0410,1.2014,0.071,0.176,-0.075,-2.32,1.86,0.1858,-0.5957,0.7910,2.052,1.988,0.064,-10.82,-36.70,0.9152,0.0924,0.3948,-1.569,-5.583,5.907,-65.27,14.18,2.01,-3.25,-5.26
1056,2677.88,2317.66,2164.54,0.0432,0.0400,1.1958,-0.021,0.008,0.032,-2.32,1.86,0.1865,-0.5903,0.8057,1.075,-0.683,-0.424,-10.83,-36.66,0.9086,0.0686,0.3652,-0.577,-1.659,2.487,-65.36,14.09,2.01,-3.27,-5.28
1071,1980.00,1715.68,1729.38,0.0483,0.0393,1.1963,-0.051,-0.037,0.001,-2.32,1.86,0.1875,-0.5918,0.8035,-2.757,-1.538,0.293,-10.85,-36.69,0.9131,0.0652,0.3740,0.354,1.333,-0.368,-65.39,14.01,2.01,-3.29,-5.30
1086,1196.70,1091.14,1223.30,0.0449,0.0371,1.1934,-0.051,0.024,-0.029,-2.31,1.86,0.1836,-0.5991,0.7854,-4.482,0.095,0.996,-10.84,-36.77,0.9086,0.0751,0.3925,1.087,3.425,-2.902,-65.35,13.96,2.01,-3.30,-5.32
1111,1681.83,1835.75,1719.71,0.0454,0.0325,1.1968,-0.021,-0.236,0.001,-2.32,1.85,0.1877,-0.5989,0.8013,4.373,-0.195,-1.325,-10.84,-36.67,0.9178,0.1113,0.4143,1.179,3.608,-4.856,-65.26,14.01,2.01,-3.31,-5.33
1125,2551.36,2389.38,2193.55,0.0513,0.0364,1.2021,-0.112,-0.251,0.017,-2.32,1.85,0.1963,-0.5947,0.8169,2.495,-0.348,-0.974,-10.85,-36.62,0.9275,0.1256,0.4161,0.751,2.341,-4.353,-65.22,14.08,2.01,-3.32,-5.33
1140,2688.35,2323.30,2179.05,0.0540,0.0369,1.1978,0.025,-0.129,0.032,-2.33,1.85,0.1926,-0.5957,0.8025,-4.146,0.019,0.843,-10.85,-36.68,0.9298,0.1421,0.4282,0.324,1.699,-3.192,-65.17,14.17,2.02,-3.32,-5.33
1165,469.82,759.12,861.47,0.0530,0.0374,1.1978,0.010,-0.068,-0.105,-2.34,1.85,0.1912,-0.6030,0.7861,0.281,-0.912,-0.272,-10.88,-36.69,0.9263,0.1528,0.4222,-0.318,-0.713,1.312,-65.17,14.28,2.02,-3.31,-5.33
1179,850.18,1196.70,1193.48,0.0535,0.0459,1.1978,0.040,0.222,0.154,-2.34,1.86,0.1965,-0.5867,0.8057,3.701,0.965,-0.653,-10.87,-36.62,0.9169,0.1376,0.4229,-1.035,-1.705,3.922,-65.17,14.34,2.02,-3.31,-5.33
1194,1660.88,1851.06,1718.10,0.0493,0.0452,1.2031,-0.005,0.069,-0.014,-2.34,1.86,0.1895,-0.5894,0.8071,2.831,1.836,-0.043,-10.84,-36.57,0.9138,0.1200,0.4222,-0.776,-2.942,5.128,-65.20,14.36,2.02,-3.31,-5.33
1219,1080.66,983.15,1133.85,0.0471,0.0500,1.2046,-0.143,0.146,0.093,-2.33,1.87,0.1926,-0.5842,0.8101,-1.276,-1.264,-0.104,-10.87,-36.58,0.9095,0.0861,0.4092,-0.867,-3.217,3.571,-65.28,14.29,2.02,-3.32,-5.34
1233,523.81,642.27,805.05,0.0437,0.0447,1.1992,0.056,0.069,0.124,-2.32,1.87,0.1968,-0.5925,0.8003,-4.222,-0.790,0.705,-10.89,-36.64,0.9126,0.0756,0.3939,-0.714,-2.163,1.571,-65.33,14.21,2.02,-3.33,-5.35
1248,451.28,733.33,834.87,0.0466,0.0437,1.2085,0.025,-0.022,-0.167,-2.32,1.88,0.1824,-0.5999,0.7859,-2.116,0.156,0.476,-10.88,-36.69,0.9121,0.0809,0.3875,-0.027,-0.713,-0.490,-65.36,14.16,2.01,-3.35,-5.36
1273,2635.97,2284.62,2208.86,0.0476,0.0337,1.1953,-0.066,-0.083,-0.228,-2.32,1.87,0.1865,-0.5918,0.8037,3.365,0.568,-0.852,-10.86,-36.60,0.9128,0.1008,0.3918,0.629,1.959,-2.887,-65.33,14.18,2.01,-3.35,-5.37
1287,1790.62,1558.53,1615.75,0.0471,0.0310,1.1978,0.117,-0.175,-0.228,-2.32,1.87,0.1875,-0.5952,0.7993,-1.383,0.004,0.049,-10.85,-36.62,0.9210,0.1133,0.3972,1.011,2.448,-3.101,-65.31,14.23,2.02,-3.36,-5.38
1302,1000.88,898.53,1035.53,0.0449,0.0298,1.1978,-0.051,-0.221,0.093,-2.32,1.86,0.1814,-0.6023,0.7847,-4.100,-1.218,0.675,-10.86,-36.70,0.9276,0.1254,0.4100,0.675,2.280,-2.688,-65.27,14.29,2.02,-3.36,-5.38
1327,1988.86,2141.17,2007.40,0.0471,0.0271,1.1960,0.056,-0.007,-0.090,-2.32,1.85,0.1882,-0.6060,0.7876,0.083,-0.439,-0.287,-10.87,-36.71,0.9298,0.1360,0.4226,0.018,0.264,-0.108,-65.25,14.37,2.01,-3.37,-5.38
1341,2723.00,2568.28,2439.34,0.0447,0.0342,1.2007,0.040,0.085,-0.151,-2.32,1.84,0.1838,-0.5996,0.7959,2.999,1.393,-0.333,-10.84,-36.68,0.9293,0.1318,0.4220,-0.470,-0.972,1.953,-65.25,14.42,2.02,-3.37,-5.38
1356,2540.07,2248.35,2230.62,0.0457,0.0337,1.1956,0.102,0.054,-0.426,-2.31,1.84,0.1826,-0.5959,0.8025,3.564,1.149,-0.806,-10.81,-36.62,0.9248,0.1172,0.4170,-1.081,-2.377,3.342,-65.28,14.43,2.02,-3.37,-5.39
1380,544.76,802.64,786.52,0.0505,0.0408,1.1965,-0.051,0.008,-0.167,-2.32,1.84,0.1909,-0.5913,0.8018,-3.184,-0.882,0.324,-10.84,-36.70,0.9124,0.0986,0.4010,-1.050,-2.514,2.777,-65.34,14.39,2.02,-3.38,-5.40
1395,1104.03,1423.15,1379.63,0.0540,0.0430,1.1973,0.010,-0.068,-0.029,-2.32,1.84,0.1909,-0.5913,0.7930,-3.123,-0.317,0.446,-10.84,-36.74,0.9089,0.0918,0.3936,-0.501,-1.659,1.525,-65.38,14.36,2.02,-3.39,-5.41
1410,2004.18,2181.47,2096.85,0.0454,0.0488,1.2019,-0.036,-0.251,0.124,-2.32,1.85,0.1909,-0.5916,0.7949,2.007,-0.042,-0.669,-10.85,-36.71,0.9089,0.0924,0.3885,0.140,0.188,-0.078,-65.40,14.34,2.02,-3.40,-5.42
1434,805.86,743.81,802.64,0.0471,0.0515,1.1973,0.071,-0.205,0.032,-2.33,1.87,0.1931,-0.5791,0.8208,2.587,0.431,-0.699,-10.84,-36.62,0.9142,0.0952,0.4066,1.194,3.180,-2.230,-65.32,14.35,2.02,-3.41,-5.43
1449,464.98,572.16,597.95,0.0469,0.0525,1.2014,-0.036,-0.205,-0.151,-2.33,1.88,0.1951,-0.5864,0.8110,-2.482,-0.225,0.293,-10.84,-36.64,0.9209,0.1023,0.4257,1.102,3.333,-3.131,-65.26,14.35,2.02,-3.41,-5.43
1464,577.00,866.30,838.10,0.0493,0.0469,1.2024,0.010,-0.037,-0.060,-2.33,1.89,0.1931,-0.5928,0.7986,-4.513,-1.630,0.492,-10.87,-36.70,0.9196,0.1168,0.4413,1.240,2.585,-3.070,-65.19,14.37,2.02,-3.40,-5.42
1488,2262.86,2004.18,2041.25,0.0652,0.0447,1.2144,0.117,0.237,-0.182,-2.34,1.89,0.2065,-0.5759,0.7732,0.083,0.355,-0.378,-10.88,-36.70,0.9301,0.1370,0.4385,-0.882,-0.804,-1.238,-65.18,14.41,2.02,-3.39,-5.42
1503,1344.18,1164.47,1237.00,0.0425,0.0417,1.1956,0.102,0.054,-0.014,-2.33,1.90,0.1890,-0.6028,0.7939,2.999,2.446,-0.775,-10.85,-36.67,0.9237,0.1526,0.4386,-0.989,-2.942,1.128,-65.18,14.49,2.02,-3.39,-5.41
1518,732.53,685.79,755.09,0.0522,0.0281,1.2112,0.086,-0.175,-0.197,-2.34,1.89,0.1807,-0.5947,0.7991,2.556,1.439,-0.302,-10.81,-36.63,0.9099,0.1443,0.3944,0.095,-5.201,4.594,-65.26,14.61,2.03,-3.39,-5.42
1542,2382.93,2437.73,2371.65,0.0452,0.0295,1.1909,-0.036,-0.175,-0.029,-2.34,1.88,0.1860,-0.5955,0.8123,-3.459,-2.943,-0.058,-10.88,-36.71,0.9292,0.0865,0.3849,-2.852,-2.804,5.907,-65.36,14.50,2.02,-3.40,-5.42
1557,2768.94,2544.91,2521.54,0.0469,0.0339,1.2070,0.056,-0.037,0.001,-2.34,1.87,0.1860,-0.6118,0.7903,-5.917,-0.439,0.935,-10.88,-36.81,0.9160,0.0719,0.3831,-0.653,-2.072,3.907,-65.42,14.41,2.02,-3.41,-5.43
1582,425.49,575.38,623.74,0.0503,0.0315,1.2021,-0.066,0.222,0.047,-2.33,1.86,0.1873,-0.6025,0.7842,5.472,0.431,-0.943,-10.86,-36.69,0.9091,0.0702,0.3804,0.339,1.440,-2.627,-65.42,14.34,2.02,-3.42,-5.44
1596,717.22,1038.75,1014.58,0.0515,0.0381,1.2007,0.040,0.192,0.185,-2.33,1.86,0.1929,-0.5864,0.8059,7.152,1.500,-1.325,-10.85,-36.58,0.9194,0.0931,0.3820,1.789,2.509,-4.826,-65.41,14.35,2.02,-3.43,-5.45
1611,1570.62,1838.17,1770.48,0.0486,0.0452,1.2048,-0.005,0.115,-0.090,-2.33,1.87,0.1873,-0.5793,0.8149,-0.192,0.584,0.141,-10.83,-36.56,0.9236,0.1129,0.3998,1.469,4.951,-5.009,-65.35,14.40,2.03,-3.43,-5.46
1636,1173.33,1014.58,1083.88,0.0452,0.0479,1.1885,0.025,0.161,0.124,-2.32,1.88,0.1919,-0.5854,0.7903,-3.764,-1.035,0.553,-10.86,-36.65,1.1854,0.0695,-0.2091,13.744,-89.507,-10.032,-67.82,17.68,2.03,-3.61,-5.63
1650,538.32,577.80,636.63,0.0449,0.0491,1.1992,-0.051,-0.205,-0.060,-2.32,1.89,0.1895,-0.5864,0.7866,1.121,-0.119,-0.302,-10.86,-36.63,0.9813,0.1748,0.7068,76.690,-95.003,-3.650,-68.88,18.70,2.02,-3.85,-5.87
1675,2283.00,2151.65,1909.89,0.0471,0.0466,1.2112,-0.005,-0.205,-0.121,-2.32,1.89,0.1975,-0.5879,0.8164,2.678,0.675,-0.607,-10.85,-36.55,0.9482,0.1346,0.4563,31.484,-90.499,3.968,-70.97,19.42,2.02,-4.22,-6.24
1690,2357.95,2123.44,1998.53,0.0500,0.0413,1.1978,-0.005,-0.068,-0.243,-2.33,1.89,0.1909,-0.5881,0.8057,-3.184,0.400,0.538,-10.85,-36.59,0.9120,0.1498,0.3774,50.583,-100.697,-5.757,-72.30,20.18,2.02,-4.65,-6.68
1714,726.08,962.20,1082.27,0.0476,0.0398,1.2041,-0.036,-0.099,-0.136,-2.33,1.89,0.1951,-0.6062,0.7947,-2.711,-1.645,-0.104,-10.89,-36.67,0.9198,0.1453,0.3256,52.828,-125.507,8.060,-75.30,21.55,2.02,-5.27,-7.29
1729,1025.86,1278.10,1278.10,0.0505,0.0393,1.1973,-0.051,-0.068,-0.060,-2.33,1.89,0.1921,-0.6025,0.7893,1.213,0.965,-0.195,-10.88,-36.67,0.9965,0.1982,0.3044,42.034,-112.010,10.304,-76.79,22.38,2.02,-5.95,-7.97
1754,1741.47,1586.74,1621.39,0.0457,0.0344,1.1992,-0.036,-0.007,-0.044,-2.33,1.89,0.1846,-0.5945,0.7986,3.579,0.965,-0.531,-10.85,-36.58,1.0415,0.1434,0.2777,-1.386,-99.339,20.350,-79.15,22.45,2.02,-6.74,-8.76
1768,1175.75,1168.50,1332.09,0.0410,0.0349,1.1985,0.132,-0.007,-0.014,-2.32,1.88,0.1809,-0.5872,0.8054,1.136,-0.287,-0.714,-10.84,-36.55,1.0803,0.1195,0.2686,-0.089,-129.629,8.365,-80.90,22.48,2.02,-7.60,-9.62
1793,1777.73,1805.13,1652.82,0.0435,0.0359,1.1982,-0.005,-0.205,-0.197,-2.32,1.88,0.1877,-0.6057,0.7866,-5.276,-1.035,0.721,-10.86,-36.70,0.9854,0.1427,0.0946,-12.440,-145.797,22.960,-84.44,22.85,2.02,-8.65,-10.67
1808,2274.95,2100.07,1869.60,0.0466,0.0364,1.1973,-0.097,-0.022,-0.136,-2.32,1.88,0.1848,-0.6052,0.7883,-0.024,-0.073,-0.287,-10.86,-36.72,0.9579,0.1631,0.0270,11.576,-134.988,11.663,-86.28,24.17,2.02,-9.76,-11.78
1833,775.24,981.54,1169.30,0.0488,0.0369,1.2034,0.010,-0.037,-0.182,-2.32,1.87,0.1943,-0.5935,0.8096,2.144,0.507,-0.394,-10.85,-36.66,0.9194,0.1296,0.0273,5.392,-127.904,20.670,-89.29,25.38,2.02,-10.99,-13.01
1847,836.48,1116.12,1232.97,0.0518,0.0354,1.1997,-0.021,0.039,-0.121,-2.32,1.87,0.1895,-0.5959,0.7991,-0.696,0.187,0.217,-10.84,-36.67,0.8965,0.1370,-0.0796,-1.936,-133.965,39.021,-91.01,27.25,2.02,-12.26,-14.29
1872,2062.20,1825.27,1729.38,0.0444,0.0410,1.1907,0.040,0.008,0.001,-2.32,1.87,0.1863,-0.5940,0.7964,-1.459,-0.790,0.080,-10.86,-36.70,0.8513,0.1266,-0.1675,-1.249,-110.850,44.762,-93.40,29.53,2.02,-13.61,-15.64
1886,1457.00,1392.53,1483.59,0.0408,0.0403,1.2009,0.010,0.069,-0.105,-2.31,1.87,0.1848,-0.5991,0.7910,-0.009,0.217,0.034,-10.85,-36.71,0.7888,0.0475,-0.1157,5.240,-115.690,46.304,-94.80,32.17,2.02,-14.97,-16.99
1911,1419.93,1588.35,1480.37,0.0376,0.0286,1.2065,-0.036,0.131,0.032,-2.30,1.86,0.1826,-0.6069,0.8220,2.510,0.446,-0.836,-10.82,-36.65,0.9055,0.1039,-0.3380,-12.623,-122.820,44.533,-97.26,34.48,2.02,-16.40,-18.42
1926,2031.58,1926.01,1694.73,0.0527,0.0439,1.2039,-0.066,-0.099,-0.182,-2.30,1.87,0.2014,-0.5730,0.7910,-0.894,-0.454,-0.333,-10.85,-36.64,0.9772,0.0265,-0.3195,6.599,-117.919,37.403,-98.43,37.39,2.02,-17.82,-19.84
1950,933.99,1079.05,1272.45,0.0569,0.0410,1.2117,-0.051,-0.541,-0.044,-2.32,1.87,0.1858,-0.5972,0.7903,-2.161,0.110,0.324,-10.84,-36.71,1.1008,-0.0043,-0.2916,9.011,-109.354,9.846,-100.61,33.28,2.02,-19.28,-21.30
1965,788.94,1082.27,1253.11,0.0488,0.0413,1.2014,-0.066,-0.679,0.154,-2.33,1.87,0.1907,-0.5984,0.7979,2.770,-1.279,-1.111,-10.86,-36.67,1.1605,0.0145,-0.3784,21.637,-113.965,15.754,-101.66,36.47,2.02,-20.72,-22.74
1990,2229.82,1957.44,1764.84,0.0503,0.0405,1.2065,-0.066,-0.541,-0.044,-2.35,1.87,0.1907,-0.5911,0.8123,-0.589,0.416,-0.378,-10.84,-36.67,1.1677,0.0374,-0.2739,12.400,-102.163,20.731,-103.67,39.49,2.02,-22.19,-24.22
2005,1865.57,1673.77,1636.70,0.0562,0.0349,1.2051,0.025,-0.129,-0.304,-2.35,1.86,0.1929,-0.5979,0.8015,-4.436,-1.218,0.843,-10.86,-36.74,1.0095,-0.0087,-0.2322,-21.340,-88.026,34.441,-104.39,34.84,2.03,-23.62,-25.64
2029,1031.50,1305.49,1345.79,0.0530,0.0386,1.1990,0.040,0.650,0.093,-2.34,1.86,0.1970,-0.6106,0.7979,-0.955,0.859,0.385,-10.85,-36.77,0.8864,0.0026,-0.4443,-14.073,-96.133,46.243,-105.91,37.40,2.03,-25.04,-27.07
2044,1600.44,1691.50,1531.14,0.0500,0.0378,1.2039,0.163,0.924,0.001,-2.33,1.87,0.1899,-0.6052,0.7917,2.449,1.561,0.110,-10.82,-36.75,0.8700,0.0696,-0.5247,14.522,-89.476,17.556,-106.23,40.30,2.03,-26.40,-28.43
2069,1229.74,1265.20,1384.47,0.0405,0.0369,1.1841,0.132,0.909,0.017,-2.30,1.87,0.1868,-0.5771,0.7869,3.335,2.568,0.385,-10.76,-36.66,0.8197,-0.0082,-0.4629,10.644,-99.247,29.205,-107.74,36.18,2.03,-27.76,-29.80
2083,913.85,1098.39,1278.90,0.0369,0.0400,1.1824,0.071,0.207,0.139,-2.29,1.87,0.1748,-0.5740,0.7815,-1.138,1.607,1.637,-10.73,-36.67,0.8148,-0.0280,-0.4581,22.385,-98.804,28.395,-108.21,32.24,2.04,-29.07,-31.11
2108,2179.05,1947.77,1714.87,0.0349,0.0359,1.2031,-0.112,-0.755,-0.121,-2.29,1.86,0.1807,-0.6006,0.8074,0.281,-4.042,-2.211,-10.81,-36.66,0.7986,0.0092,-0.5214,26.614,-97.995,30.426,-109.56,35.83,2.04,-30.37,-32.41
2123,2135.53,1839.78,1710.84,0.0410,0.0337,1.2021,-0.036,-0.648,-0.243,-2.30,1.86,0.1978,-0.5935,0.8201,-3.917,-3.386,-0.806,-10.87,-36.70,0.8315,-0.0125,-0.5363,9.316,-96.239,51.632,-109.88,31.67,2.03,-31.61,-33.65
2147,893.70,1191.06,1310.33,0.0564,0.0305,1.2034,-0.082,-0.266,-0.090,-2.31,1.85,0.1921,-0.6162,0.7751,-1.856,0.904,0.354,-10.85,-36.78,0.9312,-0.0013,-0.5994,2.263,-76.224,43.479,-110.69,27.49,2.03,-32.82,-34.85
2162,1220.07,1432.01,1396.56,0.0564,0.0344,1.2002,-0.036,0.069,-0.090,-2.32,1.84,0.1921,-0.5969,0.7891,6.617,-0.378,-1.417,-10.86,-36.69,0.9681,-0.0957,-0.5516,1.759,-68.087,25.205,-110.64,23.56,2.03,-33.94,-35.97
2187,1523.88,1460.22,1530.33,0.0552,0.0371,1.1975,0.086,0.024,-0.151,-2.32,1.84,0.1887,-0.5947,0.7932,-2.299,2.034,1.331,-10.81,-36.75,0.8308,-0.1245,-0.5558,4.461,-99.354,11.632,-111.95,19.85,2.03,-35.07,-37.10
2201,1148.35,1251.50,1382.05,0.0488,0.0408,1.2007,-0.021,0.131,-0.029,-2.32,1.85,0.1892,-0.5996,0.7905,-3.123,-0.912,0.919,-10.82,-36.81,0.7926,-0.1504,-0.5679,6.828,-99.247,7.724,-112.19,16.25,2.04,-36.14,-38.17
2226,1809.96,1759.19,1591.58,0.0420,0.0452,1.1941,0.010,0.115,0.108,-2.31,1.85,0.1982,-0.5842,0.8035,1.961,0.446,-0.699,-10.82,-36.74,0.7151,-0.1090,-0.7416,5.866,-106.316,21.907,-113.41,12.64,2.04,-37.22,-39.25
2241,2101.69,1843.81,1663.30,0.0398,0.0432,1.1951,-0.005,0.039,-0.044,-2.30,1.86,0.1858,-0.5903,0.8035,1.014,2.629,0.324,-10.77,-36.72,0.6956,-0.1431,-0.6724,11.652,-106.682,23.846,-113.57,9.19,2.04,-38.23,-40.27
2265,933.99,1207.99,1349.82,0.0486,0.0437,1.1960,0.056,-0.236,-0.014,-2.31,1.86,0.1917,-0.5813,0.8071,1.091,-1.233,-0.867,-10.81,-36.67,0.6963,-0.0903,-0.7922,7.484,-103.308,21.205,-114.64,5.72,2.04,-39.25,-41.29
2280,1018.61,1294.21,1366.74,0.0500,0.0447,1.1963,-0.005,-0.266,-0.151,-2.31,1.87,0.1946,-0.5906,0.8032,-5.123,-1.203,0.507,-10.83,-36.74,0.6940,-0.0740,-0.8981,-2.959,-81.858,17.602,-114.26,2.06,2.04,-40.17,-42.22
2305,1876.85,1664.91,1598.83,0.0540,0.0430,1.1992,-0.005,0.024,0.078,-2.32,1.87,0.1899,-0.6067,0.7888,-0.787,-0.531,-0.119,-10.84,-36.78,0.7280,-0.1143,-0.8392,4.278,-74.560,12.976,-114.60,-1.33,2.04,-41.06,-43.09
2319,1365.93,1403.00,1491.65,0.0479,0.0398,1.1995,-0.051,0.283,-0.105,-2.31,1.87,0.1912,-0.6008,0.8035,4.587,0.416,-1.157,-10.83,-36.71,0.6665,-0.1553,-0.7919,3.591,-75.781,13.113,-114.17,-4.63,2.04,-41.84,-43.88
2344,1510.99,1589.96,1457.80,0.0425,0.0330,1.2031,0.071,0.268,0.047,-2.30,1.87,0.1743,-0.5967,0.7908,-0.100,1.866,0.736,-10.77,-36.72,0.6173,-0.0852,-0.8735,3.224,-69.766,23.525,-114.29,-7.94,2.04,-42.59,-44.63
2359,2112.97,1813.19,1596.41,0.0442,0.0352,1.2024,0.010,-0.068,-0.075,-2.30,1.86,0.1782,-0.5942,0.7925,-1.093,-1.325,0.003,-10.78,-36.74,0.5938,-0.1316,-0.8823,-11.554,-36.301,25.205,-113.20,-11.38,2.04,-43.20,-45.25
2384,838.10,1183.00,1395.75,0.0457,0.0315,1.1948,0.056,-0.205,0.108,-2.30,1.86,0.1824,-0.6079,0.8081,-2.803,-0.882,0.492,-10.79,-36.81,0.6248,-0.1360,-0.9479,-12.119,-44.087,19.098,-112.67,-14.89,2.05,-43.74,-45.78
2398,664.84,1173.33,1359.49,0.0378,0.0461,1.1809,0.040,0.405,-0.365,-2.29,1.87,0.2156,-0.5457,0.7573,0.098,-0.302,-0.943,-10.84,-36.79,0.6339,-0.1467,-0.9745,-13.554,-24.423,12.457,-111.42,-18.21,2.04,-44.15,-46.19
2423,2511.87,1868.79,1652.82,0.0479,0.0747,1.1960,0.300,-0.160,1.482,-2.29,1.91,0.1716,-0.5964,0.7808,3.961,3.836,-0.394,-10.73,-36.70,0.6555,-0.1581,-0.9447,-5.234,-11.415,9.128,-110.16,-21.38,2.05,-44.44,-46.49
2437,1849.45,1581.90,1590.77,0.0503,0.0410,1.1924,0.040,-0.908,-0.823,-2.31,1.91,0.1792,-0.5859,0.8003,2.327,-0.393,-0.821,-10.72,-36.66,0.6528,-0.1554,-0.9191,-0.913,-6.804,6.426,-108.75,-24.38,2.05,-44.61,-46.67
2462,954.95,1362.71,1379.63,0.0500,0.0496,1.2058,0.071,-0.175,0.078,-2.31,1.92,0.2085,-0.6001,0.8237,-6.604,-3.676,-1.233,-10.83,-36.81,0.6017,-0.1536,-0.8647,-5.493,6.936,-1.543,-107.10,-27.42,2.05,-44.66,-46.71
2477,1876.85,1712.45,1494.07,0.0508,0.0491,1.2056,0.102,0.176,-0.044,-2.31,1.93,0.1970,-0.6150,0.7917,-9.016,-0.622,2.171,-10.84,-36.96,0.5760,-0.1646,-0.8346,-5.737,7.761,-5.513,-105.53,-30.33,2.05,-44.59,-46.64
2502,921.10,1224.91,1431.21,0.0513,0.0415,1.2019,0.071,1.108,0.291,-2.29,1.93,0.1936,-0.5979,0.7903,10.694,2.584,-1.279,-10.78,-36.70,0.6213,-0.1863,-0.8799,-9.325,13.867,-3.208,-103.77,-33.31,2.05,-44.41,-46.46
2516,524.62,1084.69,1358.68,0.0486,0.0447,1.2009,0.132,0.802,0.032,-2.28,1.94,0.1890,-0.5703,0.8101,8.907,4.431,0.018,-10.72,-36.54,0.6749,-0.1753,-0.9420,-8.547,24.738,-3.650,-102.05,-36.16,2.05,-44.11,-46.17
2541,2565.86,1952.60,1637.51,0.0449,0.0427,1.1912,-0.036,-0.129,0.032,-2.28,1.94,0.1655,-0.5757,0.7825,-4.482,-0.760,0.782,-10.72,-36.65,0.6591,-0.1395,-1.0035,-24.684,56.921,-5.864,-99.28,-39.48,2.06,-43.65,-45.71
2555,2253.99,1813.99,1610.92,0.0283,0.0427,1.1938,-0.143,-0.557,-0.304,-2.27,1.94,0.1833,-0.5842,0.7981,-3.444,-5.767,-1.661,-10.80,-36.69,0.6077,-0.1085,-1.0514,-29.188,84.387,-6.826,-96.69,-42.58,2.06,-43.04,-45.09
2580,770.40,1207.99,1319.19,0.0466,0.0364,1.1958,-0.021,-0.404,-0.105,-2.28,1.94,0.1875,-0.6133,0.7886,-5.184,1.133,1.438,-10.77,-36.84,0.5544,-0.1047,-1.0945,-16.898,120.509,-5.055,-92.35,-45.64,2.06,-42.16,-44.22
2595,1300.66,1472.31,1421.54,0.0452,0.0312,1.2068,-0.036,-0.328,-0.441,-2.28,1.93,0.1829,-0.6177,0.7810,3.915,1.194,-1.386,-10.74,-36.81,0.5555,-0.1483,-0.9789,17.072,138.203,-4.902,-89.12,-47.91,2.06,-41.12,-43.18
2620,1457.00,1454.58,1533.55,0.0542,0.0281,1.1951,0.025,0.283,-0.029,-2.28,1.91,0.1953,-0.5933,0.8103,0.434,1.057,-0.134,-10.72,-36.79,0.7286,-0.1497,-0.6920,-12.760,166.066,-17.742,-84.21,-50.62,2.06,-39.81,-41.87
2634,1040.37,1237.00,1413.48,0.0566,0.0295,1.2053,0.040,-0.007,-0.151,-2.29,1.91,0.1812,-0.6082,0.7773,-7.077,0.782,1.912,-10.70,-36.92,0.8905,-0.0815,-0.6663,-10.577,158.539,-36.566,-81.32,-53.22,2.07,-38.39,-40.46
2659,1910.70,1776.92,1571.43,0.0464,0.0386,1.1951,0.132,0.039,0.001,-2.28,1.91,0.1831,-0.6023,0.7888,3.442,-1.508,-1.401,-10.74,-36.84,0.8459,-0.0479,-0.7133,-74.730,214.035,-55.360,-75.48,-57.50,2.07,-36.66,-38.73
2674,2197.58,1946.96,1701.98,0.0435,0.0349,1.1992,0.056,-0.037,-0.121,-2.28,1.90,0.1860,-0.5906,0.8088,3.136,1.958,0.034,-10.70,-36.78,0.7478,0.0382,-0.8199,-89.982,254.432,-82.078,-71.19,-54.08,2.07,-34.75,-36.82
2699,851.79,1075.82,1172.53,0.0376,0.0454,1.2070,0.132,-0.022,-0.090,-2.27,1.91,0.1794,-0.5891,0.7974,2.633,-0.058,-0.256,-10.70,-36.71,0.5920,-0.0511,-0.5791,-52.333,268.310,-38.276,-64.12,-57.77,2.08,-32.48,-34.56
2713,918.68,1110.48,1104.03,0.0432,0.0432,1.1960,-0.021,-0.099,0.185,-2.27,1.91,0.1870,-0.5769,0.8105,-1.093,-1.920,-0.699,-10.72,-36.70,0.6167,-0.1409,-0.3230,-16.348,214.402,20.808,-61.00,-59.98,2.08,-30.15,-32.23
2738,1900.22,1753.55,1768.86,0.0525,0.0449,1.1997,-0.066,-0.297,-0.014,-2.28,1.92,0.1912,-0.6030,0.7803,-4.528,-0.042,0.721,-10.73,-36.83,0.8817,-0.1102,-0.1289,29.270,166.493,-33.467,-57.31,-60.86,2.08,-27.73,-29.81
2752,1369.16,1377.22,1485.20,0.0566,0.0461,1.1980,-0.051,-0.236,-0.258,-2.29,1.92,0.1921,-0.5959,0.7812,3.884,-0.393,-0.898,-10.74,-36.79,1.1145,-0.0386,-0.2134,8.247,155.104,-34.093,-55.54,-62.92,2.08,-25.35,-27.43
2778,1468.28,1560.15,1431.21,0.0518,0.0432,1.1992,0.025,0.024,-0.136,-2.29,1.93,0.1948,-0.5916,0.8149,-0.222,1.347,0.507,-10.71,-36.78,1.0289,0.0679,-0.2858,-16.776,168.127,-46.948,-51.79,-58.74,2.09,-22.87,-24.95
2792,1975.16,1864.76,1662.49,0.0471,0.0388,1.1980,-0.005,0.192,-0.243,-2.29,1.92,0.1846,-0.5977,0.8022,-3.596,0.446,0.675,-10.70,-36.83,0.9551,0.0199,-0.1708,1.377,163.287,-38.185,-50.02,-54.08,2.09,-20.44,-22.53
2817,1010.55,1151.58,1289.38,0.0420,0.0344,1.2004,0.025,0.314,-0.060,-2.28,1.92,0.1904,-0.6008,0.7996,-0.833,-0.348,0.064,-10.71,-36.85,0.8698,-0.0215,0.1058,25.515,115.455,-37.971,-47.87,-52.60,2.09,-18.04,-20.13
2831,911.43,1127.40,1258.75,0.0422,0.0334,1.1943,0.056,0.039,0.047,-2.27,1.91,0.1804,-0.5967,0.7866,1.121,2.965,0.202,-10.66,-36.84,1.0033,0.0106,0.1486,5.744,96.570,-43.314,-47.17,-51.39,2.10,-15.75,-17.85
2856,2110.55,1880.07,1751.94,0.0588,0.0332,1.2156,0.056,-0.679,-0.090,-2.30,1.91,0.1780,-0.5815,0.8052,3.839,-2.302,-0.943,-10.71,-36.73,1.0198,0.0834,-0.0487,-11.661,96.570,-64.139,-45.57,-48.24,2.10,-13.51,-15.61
2871,1714.87,1586.74,1583.52,0.0396,0.0347,1.1794,-0.066,-0.572,0.200,-2.30,1.90,0.1914,-0.5845,0.8115,-3.077,-1.187,-0.424,-10.73,-36.75,1.0293,0.1583,-0.0637,-31.218,100.173,-50.108,-44.85,-45.48,2.10,-11.37,-13.48
2896,1123.37,1370.77,1366.74,0.0520,0.0386,1.2107,-0.097,-0.969,-0.182,-2.33,1.90,0.1816,-0.6147,0.7832,-2.558,-2.012,-0.256,-10.77,-36.84,1.1123,0.1627,-0.0040,-40.409,107.119,-45.376,-42.97,-43.73,2.10,-9.26,-11.36
2910,1660.07,1710.04,1558.53,0.0518,0.0366,1.2080,0.040,-0.480,-0.136,-2.33,1.90,0.2029,-0.6035,0.8118,4.938,-1.584,-2.119,-10.80,-36.77,0.9036,0.1174,-0.0702,-8.455,123.562,-33.269,-41.98,-40.56,2.10,-7.22,-9.32
2935,1200.73,1230.55,1381.25,0.0518,0.0356,1.2078,0.025,0.268,0.062,-2.33,1.89,0.1858,-0.6003,0.8037,-2.268,1.820,1.331,-10.75,-36.82,1.0782,0.1702,0.1271,12.766,108.112,-29.177,-40.07,-38.37,2.10,-5.19,-7.29
2950,902.56,1085.49,1237.00,0.0508,0.0398,1.1951,0.056,0.909,0.032,-2.32,1.89,0.1958,-0.6042,0.7949,-1.169,-0.210,0.629,-10.76,-36.85,1.0054,0.2694,0.0847,5.667,113.165,-23.727,-39.14,-36.07,2.10,-3.23,-5.34
2974,2187.11,1994.51,1789.01,0.0454,0.0403,1.2012,0.163,1.092,-0.243,-2.29,1.90,0.1941,-0.5952,0.8113,0.220,0.599,0.782,-10.75,-36.83,0.8071,0.1284,0.2048,-2.745,107.058,-21.956,-37.22,-34.77,2.10,-1.28,-3.39
2989,2125.86,1873.63,1759.19,0.0422,0.0417,1.1904,0.208,1.123,-0.029,-2.27,1.90,0.1885,-0.5903,0.7871,0.938,3.118,0.935,-10.71,-36.82,0.8115,0.2102,0.1920,16.049,96.341,-38.902,-36.52,-32.90,2.10,0.57,-1.53
3014,867.11,1145.13,1261.17,0.0393,0.0383,1.1833,-0.036,-0.389,-0.334,-2.27,1.90,0.1724,-0.5847,0.7795,4.846,-0.470,4.095,-10.70,-36.70,0.8263,0.2068,0.1799,36.568,103.928,-51.696,-34.70,-30.37,2.10,2.43,0.33
3028,1266.81,1463.44,1415.09,0.0359,0.0698,1.2141,0.819,-0.129,6.612,-2.26,1.94,0.1970,-0.5916,0.7959,4.678,-13.080,10.797,-10.90,-36.63,0.9487,0.1658,0.2467,-1.905,89.074,-27.574,-34.19,-29.11,2.09,4.19,2.10
3053,1531.94,1444.10,1478.75,0.0671,0.0083,1.1760,-0.112,0.298,23.177,-2.27,1.91,0.2334,-0.6611,0.7546,-8.238,-5.508,10.385,-11.08,-36.93,0.9431,0.2506,0.5253,76.003,93.654,-59.666,-32.38,-26.16,2.07,5.96,3.89
3068,1066.15,1125.79,1300.66,0.0586,0.0117,1.1875,0.376,0.222,4.520,-2.28,1.89,0.1562,-0.5383,0.7107,2.327,-4.638,11.774,-11.12,-36.90,0.9426,0.1754,0.5094,17.835,83.241,-31.559,-31.75,-25.00,2.04,7.65,5.60
3093,1886.52,1864.76,1677.80,0.0649,0.0291,1.1936,0.056,-0.877,-1.220,-2.32,1.88,0.1501,-0.6287,0.8174,-13.673,6.049,-4.898,-10.92,-37.25,0.9031,0.2944,0.2373,64.247,82.814,-73.421,-30.43,-21.90,2.04,9.31,7.28
3107,2361.98,2062.20,1892.97,0.0535,0.0317,1.2063,-0.005,0.329,-0.029,-2.32,1.87,0.1741,-0.6135,0.8215,7.182,10.660,-16.836,-10.74,-37.13,0.9375,0.3344,0.2273,68.797,81.822,-57.223,-29.99,-19.37,2.04,10.89,8.85
3132,688.21,941.25,1125.79,0.0444,0.0356,1.1929,0.040,-0.282,-0.334,-2.32,1.87,0.2173,-0.4932,0.6580,1.884,7.897,-13.554,-10.63,-37.08,0.7114,0.3555,0.4707,29.484,99.196,-58.704,-27.97,-17.52,2.06,12.50,10.44
3147,701.90,1074.21,1149.16,0.0386,0.0386,1.1943,0.040,0.970,0.841,-2.30,1.87,0.1980,-0.5906,0.8328,0.205,4.965,-14.149,-10.57,-37.04,0.8164,0.3844,0.5173,42.263,89.165,-69.528,-27.18,-15.83,2.07,14.05,11.98
3172,2243.52,1869.60,1832.53,0.0352,0.0498,1.2039,0.102,-1.534,-0.350,-2.32,1.88,0.1711,-0.5298,0.6787,-9.200,8.920,-4.852,-10.36,-37.29,0.8210,0.3641,0.4314,11.301,94.081,-72.093,-25.45,-14.44,2.10,15.62,13.51
3186,1418.32,1369.16,1468.28,0.0452,0.0327,1.1924,0.056,-0.068,0.414,-2.32,1.88,0.1494,-0.6165,0.8191,13.365,3.683,-6.333,-10.27,-37.09,0.9236,0.3269,0.4840,50.431,80.203,-76.566,-24.95,-12.75,2.14,17.10,14.97
3211,1361.10,1544.84,1460.22,0.0457,0.0146,1.3181,0.147,-1.747,-1.296,-2.36,1.85,0.2034,-0.5464,0.7961,6.633,5.454,-14.516,-10.17,-36.88,0.8328,0.4154,0.5190,10.369,69.608,-55.467,-23.78,-11.47,2.18,18.57,16.39
3226,2255.60,2020.29,1793.04,0.0476,0.0391,1.1667,0.208,3.077,0.856,-2.31,1.86,0.2544,-0.5828,0.8931,4.709,6.523,-7.982,-10.14,-36.73,0.8286,0.3751,0.6113,-3.401,69.470,-55.757,-23.30,-10.66,2.22,19.97,17.75
3251,644.69,953.33,1182.20,0.0190,0.0442,1.1843,0.147,2.283,-0.396,-2.23,1.87,0.1604,-0.5737,0.7891,9.457,2.721,-0.806,-10.06,-36.49,0.9736,0.7256,0.1008,81.102,-46.285,-84.185,-25.02,-6.83,2.26,21.15,18.89
3265,375.53,888.86,1075.02,-0.0032,0.0613,1.1179,0.025,-0.663,0.902,-2.19,1.89,0.1309,-0.5530,0.7651,6.419,6.324,-2.211,-9.92,-36.38,0.8551,0.3121,0.6005,17.408,8.722,-122.078,-25.43,-5.89,2.29,22.21,19.91
3280,571.36,1099.19,1189.45,0.0374,0.0281,1.1702,-0.341,-2.572,-1.220,-2.22,1.88,0.1350,-0.5676,0.7830,-1.184,-4.393,-3.661,-9.95,-36.39,0.5543,0.4535,0.4854,46.400,19.364,-79.834,-25.44,-4.25,2.33,23.19,20.86
3305,2253.19,1796.26,1749.52,0.0430,0.0305,1.2244,-0.341,-3.931,-0.243,-2.31,1.86,0.2175,-0.6025,0.8611,-14.971,-10.500,-4.333,-10.24,-36.73,0.7914,0.6267,0.4500,11.118,29.867,-78.475,-25.12,-2.81,2.35,24.14,21.79
3319,1185.42,1237.00,1379.63,0.0576,0.0366,1.2095,0.025,-0.602,0.490,-2.33,1.86,0.2319,-0.6328,0.7756,-17.932,1.378,1.393,-10.27,-37.04,0.5492,0.5267,0.4786,14.186,41.287,-68.383,-24.78,-1.59,2.37,25.05,22.68
3344,1623.81,1696.34,1586.74,0.0618,0.0339,1.1892,-0.005,0.543,-0.060,-2.33,1.85,0.1763,-0.5994,0.7737,19.258,6.171,0.370,-10.12,-36.58,0.6256,0.5100,0.5894,-1.005,47.990,-86.429,-23.89,-0.77,2.40,25.95,23.55
3359,2737.51,2184.69,1869.60,0.0596,0.0325,1.2051,0.040,0.909,-0.105,-2.33,1.85,0.2061,-0.5891,0.8450,17.197,3.225,-5.218,-10.10,-36.30,0.5936,0.5476,0.5409,20.140,48.722,-82.368,-23.47,0.44,2.42,26.82,24.40
3383,464.98,876.78,1129.01,0.0596,0.0413,1.1924,0.117,1.184,0.154,-2.31,1.85,0.2017,-0.5845,0.7830,-16.513,0.324,3.560,-10.12,-36.71,0.6503,0.7073,0.4918,3.255,46.921,-81.895,-22.61,1.62,2.45,27.69,25.24
3398,387.62,920.29,1106.45,0.0544,0.0537,1.1780,0.193,1.413,0.887,-2.29,1.87,0.1780,-0.6172,0.7378,-11.764,-1.752,4.705,-10.16,-36.94,0.6852,0.7087,0.5427,19.072,47.089,-75.788,-22.23,2.91,2.46,28.52,26.06
3413,843.74,1263.59,1291.79,0.0520,0.0508,1.2100,0.086,0.176,-0.472,-2.30,1.88,0.1946,-0.6101,0.7976,12.526,-3.813,-3.875,-10.23,-36.77,0.5554,0.6444,0.5997,7.957,57.486,-64.414,-21.61,3.91,2.47,29.34,26.87
3437,1780.95,1560.15,1581.90,0.0403,0.0537,1.1892,0.102,2.100,0.979,-2.24,1.90,0.1836,-0.5635,0.8069,0.831,6.080,5.270,-10.09,-36.72,0.4508,0.6061,0.5175,14.476,65.241,-71.314,-20.18,5.17,2.49,30.20,27.71
3452,1033.92,1114.51,1289.38,0.0308,0.0466,1.1829,0.102,1.703,1.498,-2.20,1.91,0.1499,-0.5715,0.7646,-2.940,1.194,6.980,-10.05,-36.76,0.4741,0.5430,0.6415,19.255,63.333,-58.994,-19.47,6.14,2.51,31.04,28.54
3466,643.88,933.99,1141.90,0.0356,0.0471,1.1833,0.422,0.604,6.475,-2.18,1.92,0.1689,-0.5789,0.7922,2.633,-4.287,-0.943,-10.10,-36.71,0.5007,0.6755,0.6334,30.125,60.173,-78.429,-18.78,7.39,2.51,31.87,29.36
3491,2439.34,2127.47,1869.60,0.0344,0.0322,1.2068,-0.112,-1.137,-0.655,-2.20,1.91,0.1716,-0.5874,0.8101,-5.688,0.385,-0.027,-10.08,-36.83,0.4166,0.6586,0.6829,26.369,44.081,-55.574,-17.81,8.76,2.52,32.72,30.19
3506,2302.34,1931.65,1813.19,0.0474,0.0251,1.1946,-0.295,-1.305,-0.182,-2.22,1.89,0.1763,-0.6184,0.7815,-6.513,-1.096,0.690,-10.10,-36.96,0.3822,0.7000,0.6453,17.911,33.593,-59.650,-17.41,9.79,2.53,33.53,31.00
3531,772.82,1067.77,1201.54,0.0579,0.0256,1.2024,-0.143,-0.724,-0.014,-2.25,1.88,0.1973,-0.6113,0.8022,1.732,-0.409,-1.600,-10.13,-36.92,0.3597,0.6433,0.5310,35.973,33.593,-57.605,-16.71,11.48,2.54,34.34,31.79
3545,1165.27,1382.86,1378.83,0.0605,0.0232,1.2024,-0.066,-0.282,-0.105,-2.26,1.86,0.1934,-0.6172,0.7935,-2.222,0.431,0.782,-10.14,-36.97,0.3959,0.6909,0.5624,39.438,34.387,-60.093,-16.36,12.83,2.55,35.11,32.56
3570,1573.04,1456.19,1519.05,0.0505,0.0293,1.1841,0.071,0.283,0.185,-2.26,1.85,0.1833,-0.6045,0.7988,3.778,-0.683,-0.348,-10.16,-36.88,0.3379,0.7501,0.6975,20.568,41.715,-69.421,-15.39,14.02,2.56,35.90,33.34
3585,1079.05,1129.82,1274.07,0.0471,0.0405,1.1924,0.056,0.589,0.124,-2.25,1.86,0.1924,-0.5872,0.8010,1.518,-0.119,-0.455,-10.18,-36.85,0.4078,0.7959,0.6909,5.713,30.188,-56.551,-15.07,14.80,2.56,36.66,34.10
3609,1896.19,1856.70,1730.18,0.0442,0.0469,1.1978,0.056,0.421,0.124,-2.24,1.86,0.1707,-0.5859,0.7896,2.144,1.362,0.385,-10.14,-36.79,0.4067,0.8538,0.6743,17.301,10.860,-33.147,-14.92,15.96,2.57,37.37,34.80
3624,2230.62,2006.59,1847.03,0.0466,0.0518,1.1895,-0.021,0.268,0.200,-2.23,1.88,0.1880,-0.5713,0.8154,2.831,-1.294,-1.020,-10.17,-36.72,0.3481,0.8363,0.7015,4.400,6.493,-19.330,-14.88,16.70,2.57,38.04,35.47
3639,2029.96,1788.21,1715.68,0.0474,0.0542,1.1970,0.040,-0.007,0.062,-2.23,1.89,0.1870,-0.5828,0.8027,-2.039,0.462,0.202,-10.17,-36.73,0.3737,0.8351,0.6624,11.469,2.967,-13.040,-14.93,17.56,2.58,38.66,36.08
3663,935.60,1174.14,1237.00,0.0427,0.0452,1.1992,-0.036,-0.282,0.078,-2.24,1.90,0.1836,-0.6003,0.7957,-1.138,-1.493,-0.745,-10.21,-36.76,0.3680,0.8523,0.6951,1.957,-8.743,3.403,-15.21,18.27,2.58,39.21,36.63
3678,1377.22,1547.25,1490.84,0.0432,0.0403,1.1934,0.025,-0.236,0.093,-2.24,1.90,0.1885,-0.5881,0.8052,1.182,-0.760,-0.317,-10.23,-36.73,0.3632,0.8557,0.6561,-5.524,-19.171,9.754,-15.55,18.88,2.58,39.70,37.12
3703,1361.10,1291.79,1392.53,0.0513,0.0371,1.1946,-0.021,-0.114,-0.044,-2.24,1.89,0.1729,-0.5979,0.7876,-1.184,0.004,0.324,-10.23,-36.77,0.4048,0.8248,0.6743,-12.684,-32.423,28.105,-16.44,19.21,2.58,40.09,37.52
3717,985.57,1070.18,1213.63,0.0493,0.0339,1.1968,0.056,-0.037,-0.014,-2.25,1.89,0.1860,-0.6003,0.7961,-0.116,-0.912,-0.226,-10.25,-36.78,0.3936,0.8428,0.6598,-13.554,-39.155,48.441,-17.07,19.67,2.57,40.42,37.84
3742,2062.20,1948.57,1812.38,0.0508,0.0295,1.2000,-0.066,-0.099,-0.121,-2.25,1.88,0.1790,-0.6042,0.7803,-2.406,0.431,0.385,-10.24,-36.86,0.3088,0.8564,0.6622,-16.577,-46.682,69.418,-18.19,19.92,2.57,40.64,38.07
3756,2212.09,1947.77,1823.66,0.0457,0.0312,1.2024,-0.005,-0.068,-0.029,-2.25,1.87,0.1829,-0.6082,0.7861,1.258,-0.119,-0.440,-10.24,-36.86,0.3090,0.7474,0.7153,-34.241,-56.606,78.533,-18.96,19.96,2.57,40.79,38.22
3781,876.78,1061.32,1190.26,0.0483,0.0325,1.2002,0.056,-0.083,-0.075,-2.26,1.87,0.1833,-0.5930,0.8054,0.800,0.126,-0.684,-10.24,-36.83,0.4114,0.6772,0.6564,-33.172,-71.827,83.724,-20.80,19.67,2.57,40.81,38.23
3796,1075.02,1302.27,1343.37,0.0493,0.0391,1.2000,0.056,-0.022,-0.075,-2.26,1.87,0.1831,-0.5979,0.7976,-2.085,0.187,0.049,-10.24,-36.86,0.4536,0.6658,0.6451,-31.340,-82.606,86.304,-22.09,19.75,2.57,40.73,38.16
3821,1750.33,1583.52,1589.96,0.0508,0.0413,1.1960,-0.005,-0.022,-0.121,-2.26,1.87,0.1897,-0.5930,0.8005,1.014,-0.424,-0.928,-10.26,-36.83,0.5493,0.7067,0.6509,-26.699,-92.331,91.892,-24.50,19.65,2.57,40.49,37.92
3835,1286.15,1259.56,1349.01,0.0481,0.0439,1.1926,-0.066,-0.129,-0.212,-2.26,1.87,0.1909,-0.5918,0.7993,0.312,0.416,-0.836,-10.27,-36.82,0.5236,0.7321,0.6118,-20.577,-100.377,93.983,-26.01,19.96,2.57,40.16,37.59
3860,1639.93,1715.68,1611.72,0.0503,0.0415,1.1948,-0.036,0.024,-0.090,-2.27,1.87,0.1863,-0.5896,0.7979,0.709,0.156,-1.065,-10.27,-36.79,0.5380,0.6488,0.7957,-2.409,-164.285,105.831,-30.05,20.29,2.57,39.57,37.00
3875,2112.16,1954.21,1797.88,0.0444,0.0447,1.2012,-0.051,-0.282,-0.273,-2.27,1.88,0.1841,-0.5857,0.8054,-0.803,-0.439,-0.378,-10.28,-36.79,0.5393,0.6205,0.5768,-32.852,-149.369,99.449,-32.22,20.36,2.57,38.87,36.31
3900,951.72,1068.57,1224.91,0.0410,0.0447,1.1960,-0.036,-0.434,-0.411,-2.27,1.88,0.1824,-0.5974,0.7979,0.159,0.126,-0.882,-10.28,-36.78,0.6648,0.6178,0.4373,-24.608,-134.133,94.777,-35.66,20.45,2.56,37.98,35.42
3914,945.27,1138.68,1237.00,0.0425,0.0427,1.2012,0.040,-0.511,-0.411,-2.27,1.89,0.1887,-0.5928,0.7969,0.800,-0.577,-1.035,-10.30,-36.77,0.6821,0.6118,0.4342,-22.608,-130.881,99.052,-37.66,20.81,2.56,37.01,34.45
3939,2035.60,1822.86,1740.66,0.0461,0.0378,1.1960,0.010,-0.160,-0.090,-2.28,1.88,0.1863,-0.5967,0.7874,-1.978,0.080,0.583,-10.31,-36.83,0.8048,0.6030,0.4252,-22.104,-119.797,110.731,-40.77,20.95,2.56,35.89,33.33
3953,1561.76,1456.19,1527.11,0.0496,0.0349,1.2021,-0.036,-0.160,-0.350,-2.28,1.88,0.1875,-0.5994,0.7878,-0.268,-0.516,-0.623,-10.32,-36.84,0.7644,0.5253,0.4298,-7.982,-122.133,122.060,-42.67,21.43,2.56,34.72,32.16
3978,1291.79,1457.00,1436.04,0.0479,0.0334,1.2014,0.040,-0.236,-0.060,-2.29,1.88,0.1892,-0.6016,0.7935,-0.971,0.095,-0.119,-10.33,-36.87,0.7557,0.4946,0.4149,-16.852,-130.881,119.449,-45.98,21.60,2.55,33.40,30.85
3993,1808.35,1813.99,1687.47,0.0496,0.0334,1.1951,-0.036,-0.129,-0.197,-2.29,1.87,0.1777,-0.5994,0.7791,-0.833,0.080,0.080,-10.32,-36.89,0.7720,0.3535,0.4039,-23.524,-128.728,122.777,-48.00,21.65,2.55,32.03,29.48
4018,1095.97,1143.52,1307.11,0.0435,0.0332,1.1978,0.025,-0.099,-0.197,-2.29,1.86,0.1814,-0.5969,0.7966,0.495,-0.225,-0.531,-10.33,-36.88,0.7419,0.3313,0.3129,5.408,-137.079,113.464,-51.55,22.28,2.55,30.50,27.96
4032,913.85,1064.54,1216.04,0.0435,0.0376,1.2002,-0.066,-0.129,-0.167,-2.29,1.86,0.1833,-0.6023,0.7954,-0.299,0.507,0.018,-10.32,-36.89,0.6958,0.2662,0.2820,20.980,-139.675,114.197,-53.72,23.00,2.54,28.94,26.39
4057,2178.24,1959.85,1802.71,0.0493,0.0374,1.2078,0.010,-0.129,-0.136,-2.29,1.86,0.1802,-0.5889,0.7996,1.320,-0.256,-0.898,-10.33,-36.85,1.0742,0.3240,0.1907,30.660,-144.239,94.747,-57.56,24.48,2.54,27.21,24.67
4072,1962.27,1745.49,1694.73,0.0508,0.0454,1.1953,0.025,-0.175,-0.243,-2.30,1.87,0.1880,-0.5894,0.8101,-0.680,-0.760,-2.882,-10.35,-36.84,1.1249,0.3267,0.0264,0.079,-129.980,94.228,-59.75,25.70,2.54,25.45,22.91
4096,1006.52,1228.94,1315.97,0.0432,0.0415,1.1860,-0.387,-0.465,-2.823,-2.30,1.86,0.1375,-0.5957,0.8042,-8.390,-0.485,-0.699,-10.31,-37.04,0.9165,0.1759,0.1111,41.438,-141.491,68.747,-63.54,27.35,2.54,23.55,21.01
4111,1439.27,1578.68,1493.26,0.0222,0.0308,1.1953,-0.387,0.894,-3.373,-2.27,1.85,0.1748,-0.6021,0.7878,-9.077,-1.004,-0.791,-10.32,-37.18,1.0623,0.0569,0.2817,-77.356,-142.865,162.884,-65.80,25.92,2.54,21.62,19.08
4136,1322.42,1297.44,1410.26,0.0549,0.0444,1.1841,-0.295,0.695,-6.411,-2.26,1.85,0.2083,-0.5723,0.8037,1.671,3.851,-0.088,-10.25,-37.10,0.7994,0.1942,0.0581,59.713,-143.675,114.854,-69.50,28.32,2.54,19.57,17.03
4150,967.03,1103.22,1271.65,0.0789,0.0344,1.1982,-0.097,0.344,-1.235,-2.28,1.84,0.1909,-0.5940,0.7722,3.121,6.996,1.484,-10.17,-37.07,0.7649,-0.0265,-0.0200,-18.531,-137.736,116.060,-71.82,24.95,2.55,17.50,14.95
4175,2112.16,1924.40,1740.66,0.0535,0.0352,1.2012,-0.066,-0.404,-0.823,-2.30,1.84,0.1929,-0.5830,0.8125,-0.222,-3.447,0.095,-10.27,-37.04,0.8263,0.0458,0.0775,34.400,-140.850,65.021,-75.50,25.90,2.55,15.31,12.76
4190,2246.74,1933.26,1770.48,0.0513,0.0366,1.1960,-0.021,-0.297,-0.105,-2.30,1.83,0.1807,-0.5930,0.8032,-9.734,-1.691,1.194,-10.29,-37.17,0.8131,0.0394,-0.1042,36.003,-166.514,58.395,-78.00,29.08,2.55,13.11,10.56
4214,773.63,1083.88,1237.00,0.0427,0.0417,1.1887,0.102,-0.144,-0.060,-2.30,1.84,0.1748,-0.6145,0.7661,3.365,1.103,-0.607,-10.26,-37.12,0.8085,0.0049,-0.2562,20.980,-178.697,79.770,-82.23,32.59,2.55,10.76,8.21
4229,1018.61,1312.75,1348.21,0.0415,0.0327,1.1982,0.071,0.085,0.688,-2.29,1.84,0.1919,-0.5962,0.8071,9.503,1.210,-2.394,-10.26,-36.97,0.8373,-0.0366,-0.3234,11.652,-161.217,82.029,-84.26,28.63,2.56,8.44,5.89
4254,1726.15,1547.25,1573.85,0.0481,0.0295,1.2048,-0.021,-0.312,-0.670,-2.30,1.83,0.1794,-0.5920,0.7979,-2.619,1.454,0.599,-10.22,-37.03,0.8800,-0.2037,-0.2329,13.438,-179.003,56.457,-88.34,25.61,2.56,5.99,3.43
4268,1147.55,1227.33,1387.69,0.0469,0.0312,1.2048,-0.021,0.008,0.230,-2.30,1.82,0.1787,-0.6069,0.7952,-5.184,-2.607,-0.104,-10.26,-37.11,0.9370,-0.0277,-0.2681,23.362,-167.888,29.021,-90.45,21.95,2.56,3.57,1.01
4293,1793.04,1740.66,1584.32,0.0430,0.0347,1.1914,-0.021,0.008,-0.228,-2.30,1.82,0.1892,-0.6072,0.7915,-0.650,1.210,-0.302,-10.24,-37.13,1.0848,-0.0746,-0.3362,25.148,-168.728,29.708,-94.20,18.77,2.57,1.06,-1.51
4308,2424.03,1998.53,1740.66,0.0439,0.0464,1.2000,-0.036,0.069,0.032,-2.29,1.82,0.1746,-0.5977,0.7825,6.678,3.317,-0.119,-10.19,-37.04,0.9589,-0.0979,-0.4880,-9.447,-169.522,32.945,-95.99,14.89,2.57,-1.41,-3.98
4333,681.76,1044.40,1258.75,0.0381,0.0410,1.1970,-0.173,-0.129,0.032,-2.28,1.82,0.1890,-0.5735,0.8303,0.510,-1.157,0.568,-10.22,-36.98,0.9755,-0.0834,-0.7339,-9.661,-157.904,46.090,-98.99,10.89,2.58,-3.91,-6.49
4347,654.36,1108.86,1254.73,0.0449,0.0432,1.1921,-0.051,0.024,0.062,-2.28,1.83,0.1924,-0.6011,0.8037,-9.230,-0.989,1.209,-10.25,-37.11,0.8313,-0.0471,-0.7310,1.789,-136.530,27.770,-99.92,7.17,2.58,-6.31,-8.88
4372,2312.82,1843.81,1712.45,0.0518,0.0452,1.2083,0.056,-0.099,-0.121,-2.29,1.83,0.1970,-0.6084,0.7788,0.495,-1.935,-0.882,-10.32,-37.11,0.6102,-0.1420,-0.5001,-19.295,-109.690,33.815,-101.57,3.27,2.57,-8.65,-11.22
4387,1547.25,1457.80,1508.57,0.0513,0.0388,1.2014,0.040,0.069,0.108,-2.29,1.83,0.1941,-0.5999,0.7969,5.136,1.790,-1.172,-10.31,-37.04,0.5615,-0.1914,-0.5455,-42.318,-110.804,46.441,-102.01,-0.61,2.57,-10.86,-13.43
4412,1208.79,1451.36,1418.32,0.0498,0.0369,1.1985,0.010,-0.114,-0.243,-2.29,1.83,0.1768,-0.5891,0.8003,1.472,0.324,-0.043,-10.29,-36.99,0.6326,-0.1763,-0.9567,-19.005,-115.568,29.327,-103.46,-4.45,2.57,-13.01,-15.58
4426,2001.76,1806.74,1614.14,0.0461,0.0388,1.1978,0.086,0.054,0.017,-2.29,1.83,0.1890,-0.5942,0.8066,-3.077,-1.981,-0.394,-10.33,-37.02,0.8037,-0.1130,-1.1387,-24.150,-87.262,23.983,-103.33,-8.19,2.57,-15.01,-17.57
4451,946.89,1149.16,1343.37,0.0471,0.0359,1.1970,-0.021,-0.068,-0.014,-2.29,1.83,0.1794,-0.6121,0.7764,-3.520,-0.149,0.507,-10.33,-37.13,0.7451,-0.1427,-1.2671,-39.722,-14.239,13.205,-102.22,-12.48,2.56,-16.78,-19.34
4466,652.75,1047.62,1260.37,0.0457,0.0361,1.1982,0.086,0.008,0.078,-2.29,1.83,0.1858,-0.6086,0.7834,4.907,0.797,-1.081,-10.33,-37.07,0.7476,-0.0261,-1.2140,-47.218,33.470,4.182,-100.33,-16.47,2.56,-18.30,-20.86
4490,2488.50,1970.33,1743.88,0.0457,0.0420,1.1987,0.040,-0.022,-0.075,-2.29,1.84,0.1807,-0.5869,0.8110,2.022,1.118,-0.806,-10.30,-37.00,0.6086,-0.1234,-0.9596,-46.653,107.440,-4.933,-96.35,-20.73,2.56,-19.44,-22.00
4505,2145.20,1776.92,1699.56,0.0466,0.0400,1.1985,-0.005,0.039,0.093,-2.29,1.84,0.1814,-0.5894,0.8027,-4.665,-0.943,0.919,-10.31,-37.05,0.5917,-0.1237,-0.8894,-49.646,127.211,-40.078,-93.29,-24.47,2.56,-20.28,-22.84
4530,824.40,1173.33,1237.00,0.0513,0.0376,1.1936,-0.036,-0.144,-0.243,-2.29,1.84,0.1917,-0.6033,0.7820,-3.138,-1.798,0.186,-10.37,-37.14,0.5439,0.0537,-0.7903,-39.066,205.135,-12.841,-87.13,-21.40,2.55,-20.63,-23.18
4544,1301.47,1387.69,1285.35,0.0447,0.0417,1.1963,0.025,-0.099,0.139,-2.29,1.84,0.1931,-0.6069,0.7852,1.564,1.408,0.125,-10.36,-37.13,0.5084,-0.2412,-0.7596,-33.401,228.814,-7.772,-82.78,-24.70,2.55,-20.66,-23.20
4569,1161.25,907.40,987.99,0.0444,0.0386,1.2036,-0.005,-0.037,-0.029,-2.29,1.84,0.1841,-0.5930,0.8101,5.793,0.614,-1.142,-10.35,-36.97,1.5062,0.2968,-0.4231,-91.844,189.593,-23.192,-77.92,-23.54,2.54,-20.34,-22.88
4584,477.07,474.65,531.06,0.0427,0.0349,1.2017,-0.066,-0.083,-0.044,-2.29,1.83,0.1841,-0.5901,0.8098,-2.222,-0.683,0.171,-10.36,-36.98,1.1725,0.0840,-0.5701,34.400,198.768,-1.711,-74.81,-19.15,2.54,-19.82,-22.36
4609,2635.97,2699.63,2582.78,0.0544,0.0300,1.1953,-0.021,-0.053,-0.319,-2.29,1.83,0.1860,-0.6123,0.7825,-5.032,-1.508,0.736,-10.40,-37.13,0.9907,0.1829,-0.6855,-29.111,235.028,-2.582,-68.67,-16.18,2.53,-18.92,-21.45
4623,2887.40,2617.44,2563.44,0.0469,0.0359,1.2012,0.025,-0.037,0.093,-2.29,1.82,0.1929,-0.6082,0.7869,2.602,-0.225,-0.974,-10.41,-37.10,0.9915,0.0109,-0.4381,21.789,253.409,40.457,-65.01,-11.97,2.52,-17.82,-20.34
4648,411.79,581.03,599.56,0.0505,0.0386,1.1978,-0.097,0.069,0.062,-2.29,1.82,0.1838,-0.5930,0.8008,3.884,2.065,-0.470,-10.36,-37.00,1.0713,0.2637,-0.2681,41.744,253.333,69.235,-58.93,-8.00,2.52,-16.37,-18.89
4663,736.56,1069.38,1044.40,0.0496,0.0435,1.1921,-0.097,0.054,-0.044,-2.29,1.83,0.1838,-0.5859,0.8047,0.068,-0.638,-0.180,-10.38,-36.98,1.4745,0.6488,-0.5505,49.392,253.425,117.205,-55.34,-4.53,2.52,-14.77,-17.28
4687,1869.60,1652.82,1707.62,0.0515,0.0417,1.1936,0.025,-0.083,-0.105,-2.30,1.83,0.1897,-0.5989,0.7949,-5.322,-1.477,0.568,-10.42,-37.11,-0.4301,-1.0352,0.2500,72.492,334.707,-36.643,-45.67,-4.21,2.51,-12.60,-15.11
4702,1056.48,890.48,979.12,0.0522,0.0400,1.2056,-0.127,-0.236,-0.273,-2.31,1.83,0.1868,-0.6082,0.7852,-1.123,-0.073,0.141,-10.42,-37.13,-0.1587,-1.2623,1.7373,111.087,202.631,-144.811,-41.79,-3.27,2.51,-10.32,-12.82
4727,1847.03,2062.20,1972.75,0.0476,0.0371,1.1992,-0.051,0.085,0.154,-2.30,1.83,0.1924,-0.5911,0.8040,4.526,1.317,-1.249,-10.40,-37.01,0.8257,-0.3014,0.8685,-51.737,-73.217,-188.612,-43.57,-4.84,2.50,-8.32,-10.82
4741,2586.01,2540.07,2403.88,0.0488,0.0393,1.1965,0.025,-0.007,-0.075,-2.30,1.83,0.1819,-0.5894,0.8030,-0.375,0.721,0.553,-10.39,-37.00,0.9126,0.6721,-0.2982,-43.081,-84.026,-191.696,-44.92,-3.08,2.50,-6.55,-9.05
4766,585.86,653.55,729.30,0.0491,0.0400,1.1997,-0.021,-0.144,-0.228,-2.31,1.83,0.1772,-0.5986,0.7922,-3.062,-1.371,0.186,-10.42,-37.08,1.3374,1.5001,-0.7683,-30.562,48.707,-25.314,-43.61,-1.42,2.50,-4.82,-7.31
4780,603.59,846.15,903.37,0.0442,0.0344,1.1975,-0.143,-0.083,0.108,-2.31,1.82,0.1943,-0.5986,0.7852,-1.780,-0.577,0.110,-10.44,-37.11,1.3157,1.0952,-0.2797,91.667,86.387,53.021,-42.49,2.00,2.49,-3.12,-5.61
4805,2303.15,2062.20,2029.96,0.0461,0.0322,1.1985,0.056,0.008,0.169,-2.30,1.82,0.1826,-0.6013,0.7876,3.335,1.026,-0.363,-10.42,-37.03,0.8303,-0.1167,1.1133,-23.569,64.020,170.655,-40.82,1.27,2.49,-1.43,-3.92
4820,1523.08,1355.46,1431.21,0.0488,0.0391,1.2036,0.040,0.100,-0.014,-2.30,1.82,0.1875,-0.6008,0.8030,2.846,0.171,-1.127,-10.42,-36.98,0.9220,-0.5819,1.1770,33.484,-70.377,98.090,-41.71,1.20,2.48,0.07,-2.41
4845,1297.44,1571.43,1502.93,0.0479,0.0349,1.1924,-0.021,-0.053,0.047,-2.30,1.82,0.1858,-0.6021,0.7847,-4.222,-0.882,0.736,-10.44,-37.10,0.8812,-0.6340,-0.1897,-41.005,-159.858,34.319,-45.83,-1.96,2.48,1.19,-1.29
4859,2151.65,2252.38,2112.16,0.0469,0.0381,1.1956,-0.051,-0.144,-0.029,-2.30,1.82,0.1765,-0.5986,0.7793,-1.306,-0.516,-0.012,-10.45,-37.13,0.9491,-0.3411,-0.9532,-12.089,-118.224,-27.177,-47.46,-5.30,2.47,2.11,-0.36
4884,774.43,761.54,854.21,0.0471,0.0366,1.1938,-0.127,0.008,-0.044,-2.30,1.81,0.1880,-0.5916,0.8022,2.571,0.660,-0.546,-10.43,-37.05,0.9286,-0.2759,-1.1677,-7.463,85.699,-37.818,-45.18,-8.71,2.47,3.13,0.66
4899,552.82,690.62,760.73,0.0474,0.0408,1.1912,0.040,-0.083,-0.151,-2.30,1.82,0.1826,-0.5972,0.7988,0.892,0.889,0.141,-10.42,-37.03,0.9780,-0.0247,-0.2520,35.331,160.524,-71.223,-43.50,-11.52,2.47,4.20,1.73
4913,707.55,959.78,973.48,0.0476,0.0422,1.1992,-0.036,-0.190,0.001,-2.31,1.82,0.1914,-0.5933,0.8040,-0.406,-1.035,-0.546,-10.44,-37.02,0.8721,0.0083,0.6552,22.751,143.012,-54.475,-41.62,-10.94,2.46,5.32,2.85
4938,2151.65,1921.17,1916.34,0.0493,0.0469,1.1958,0.025,0.039,-0.136,-2.31,1.83,0.1946,-0.5999,0.7966,-2.803,-0.210,0.461,-10.46,-37.09,0.9945,0.3588,1.2067,12.079,-7.705,-72.566,-41.74,-10.10,2.46,6.35,3.89
4953,1345.79,1188.64,1282.12,0.0479,0.0408,1.2017,-0.005,-0.129,-0.167,-2.31,1.83,0.1868,-0.6016,0.7937,0.434,0.355,-0.027,-10.46,-37.09,1.1545,0.5870,0.6754,-42.776,-88.407,-12.292,-43.22,-9.69,2.46,7.21,4.76
4978,1465.86,1740.66,1656.04,0.0518,0.0405,1.1997,-0.036,-0.175,-0.136,-2.32,1.83,0.1921,-0.5867,0.8030,2.175,0.492,-0.638,-10.46,-37.01,1.1277,0.7104,-0.4648,-11.081,-90.667,59.464,-45.62,-7.30,2.45,7.84,5.39
4992,2385.35,2462.71,2309.60,0.0469,0.0398,1.1960,0.056,-0.037,0.078,-2.31,1.84,0.1865,-0.5923,0.7983,-1.719,0.080,0.446,-10.46,-37.03,1.1128,0.1550,-0.6831,-5.997,-28.545,112.365,-46.27,-3.90,2.45,8.38,5.93
5017,657.58,601.98,710.77,0.0437,0.0374,1.1975,-0.066,0.008,-0.060,-2.31,1.83,0.1831,-0.6045,0.7905,-1.322,-0.531,-0.043,-10.47,-37.07,0.9292,-0.5853,-0.0836,15.637,46.173,82.060,-45.37,-5.40,2.44,8.95,6.50
5032,445.64,575.38,617.29,0.0464,0.0410,1.1948,-0.051,0.085,-0.105,-2.31,1.83,0.1829,-0.5989,0.7927,0.144,0.263,-0.027,-10.47,-37.07,0.8256,-0.9347,0.2511,16.599,35.547,21.250,-44.76,-6.55,2.44,9.52,7.08
5046,644.69,967.03,937.22,0.0452,0.0361,1.2002,-0.021,0.008,-0.014,-2.30,1.83,0.1809,-0.5999,0.7952,0.984,1.133,-0.226,-10.45,-37.05,0.6735,-0.6987,0.3951,-4.989,5.150,-56.353,-44.59,-7.71,2.44,10.06,7.62
5071,2099.27,1851.87,1882.49,0.0486,0.0325,1.1987,-0.051,-0.007,-0.258,-2.30,1.83,0.1819,-0.6028,0.7944,-0.406,-0.577,-0.409,-10.46,-37.07,0.9587,0.0234,-0.0767,-17.096,-10.591,-112.887,-45.66,-4.71,2.44,10.49,8.05
5086,1171.72,978.32,1033.92,0.0505,0.0305,1.2000,0.010,-0.053,-0.060,-2.31,1.82,0.1868,-0.5994,0.7864,-3.108,-0.332,0.385,-10.47,-37.11,1.1499,0.5929,-0.3109,-1.463,3.104,-94.215,-45.90,-2.28,2.43,10.87,8.44
5110,1758.39,2050.11,1998.53,0.0461,0.0344,1.1943,-0.005,0.008,-0.014,-2.30,1.81,0.1750,-0.6021,0.7842,2.159,-0.256,-0.730,-10.47,-37.07,1.2128,0.7660,0.0728,19.866,45.241,0.243,-45.04,-0.06,2.43,11.28,8.85
5125,2772.16,2823.74,2787.47,0.0474,0.0398,1.2002,-0.005,-0.160,-0.075,-2.31,1.82,0.1863,-0.5913,0.7993,3.320,0.492,-0.775,-10.46,-37.01,1.0538,0.4325,0.4133,16.660,27.547,63.357,-44.95,1.10,2.43,11.68,9.25
5140,2860.81,2608.57,2642.42,0.0452,0.0398,1.1960,-0.005,-0.007,-0.075,-2.30,1.82,0.1863,-0.5928,0.8086,0.571,0.996,0.049,-10.45,-36.99,1.0416,0.0095,0.6083,-1.325,1.196,68.655,-45.23,1.08,2.43,12.02,9.59
5164,389.23,552.01,515.75,0.0481,0.0479,1.1970,0.056,-0.175,-0.060,-2.31,1.83,0.1882,-0.5940,0.7966,-1.429,-1.233,-0.149,-10.48,-37.02,0.9761,-0.3468,0.2061,-21.860,-81.507,50.243,-47.65,-0.66,2.42,12.17,9.75
5179,874.36,1214.43,1162.86,0.0503,0.0466,1.2004,-0.005,-0.037,-0.044,-2.31,1.84,0.1941,-0.5955,0.8005,-1.825,-0.485,0.003,-10.50,-37.04,0.8849,-0.3484,-0.2705,-21.737,-66.087,12.365,-48.91,-3.51,2.42,12.23,9.81
5204,1714.87,1469.89,1504.54,0.0474,0.0449,1.2017,-0.036,-0.022,0.017,-2.31,1.84,0.1838,-0.5947,0.7947,1.976,0.736,-0.256,-10.48,-36.98,0.9910,-0.2098,-0.6731,-5.890,17.211,-16.902,-48.60,-6.84,2.42,12.30,9.88
5218,894.51,713.99,708.35,0.0449,0.0454,1.2017,0.040,-0.114,0.139,-2.31,1.85,0.1895,-0.5862,0.8015,2.602,0.294,-0.730,-10.49,-36.93,0.9401,-0.1335,-0.3428,14.828,69.928,-35.131,-47.99,-9.66,2.41,12.40,9.99
5243,2042.05,2316.04,2336.19,0.0476,0.0420,1.1987,-0.005,-0.114,-0.014,-2.31,1.85,0.1902,-0.5957,0.7979,-2.986,-0.393,0.385,-10.50,-37.00,1.0046,0.0239,0.4570,7.026,72.768,-40.124,-46.58,-9.24,2.41,12.60,10.20
5258,3095.31,3075.97,3173.48,0.0466,0.0396,1.1992,0.086,-0.053,0.001,-2.31,1.85,0.1841,-0.5986,0.7891,-2.543,-0.729,0.247,-10.51,-37.04,1.0402,0.1892,0.7072,10.247,18.936,-39.589,-46.47,-8.61,2.40,12.80,10.39
5282,273.19,294.95,195.82,0.0447,0.0381,1.1978,0.071,-0.190,-0.167,-2.31,1.85,0.1870,-0.5999,0.7935,1.075,0.828,-0.165,-10.50,-37.01,1.0806,0.4226,0.3121,-14.684,-53.217,0.747,-48.12,-7.72,2.40,12.86,10.46
5297,348.13,631.79,514.95,0.0452,0.0317,1.1946,0.010,-0.053,-0.014,-2.31,1.85,0.1804,-0.5969,0.7957,1.625,0.752,-0.287,-10.48,-36.99,1.1392,0.4166,-0.0576,-10.577,-62.545,32.044,-49.44,-5.76,2.40,12.83,10.43
5312,1070.18,1482.78,1431.21,0.0447,0.0332,1.1924,-0.036,-0.022,-0.075,-2.30,1.84,0.1814,-0.5962,0.7917,0.220,-0.302,-0.256,-10.48,-36.98,1.0663,0.2081,-0.3153,-6.730,-36.392,60.121,-50.38,-2.81,2.40,12.73,10.33
5336,1471.50,1224.91,1224.91,0.0498,0.0320,1.2070,0.040,-0.175,-0.090,-2.31,1.84,0.1777,-0.6008,0.7805,-2.589,-0.531,0.446,-10.49,-37.06,0.9215,-0.3225,-0.1572,14.660,12.478,52.090,-50.45,-4.71,2.40,12.64,10.24
5351,624.54,464.18,379.56,0.0481,0.0317,1.1985,-0.005,-0.099,-0.182,-2.31,1.83,0.1814,-0.6055,0.7864,0.648,-0.180,-0.363,-10.49,-37.06,0.8890,-0.5219,0.0486,1.194,26.707,21.999,-50.25,-6.30,2.39,12.57,10.17
5376,2453.85,2744.76,2818.10,0.0466,0.0342,1.1943,0.010,-0.037,-0.014,-2.31,1.83,0.1826,-0.5945,0.7944,2.144,0.553,-0.394,-10.48,-37.00,0.8199,-0.3584,0.2747,-8.089,5.241,-55.055,-50.34,-7.42,2.39,12.49,10.10
5390,3300.00,3300.00,3300.00,0.0422,0.0413,1.2000,0.040,0.039,0.078,-2.30,1.83,0.1831,-0.5938,0.8037,-0.635,0.004,0.171,-10.47,-37.00,0.9022,-0.0376,0.1936,-17.066,-14.575,-82.475,-51.09,-7.73,2.39,12.37,9.98
5415,98.32,169.23,2.42,0.0447,0.0466,1.1917,-0.021,-0.007,-0.136,-2.30,1.84,0.1890,-0.5940,0.7998,-1.429,-0.821,-0.012,-10.50,-37.03,1.1677,0.4971,0.0350,-12.165,-25.003,-57.147,-52.02,-6.15,2.39,12.19,9.80
5430,332.82,683.37,539.93,0.1150,-0.1501,1.1116,0.086,-0.816,2.185,-2.38,1.65,0.1902,-0.5957,0.7886,-0.024,0.080,-0.012,-10.51,-37.03,1.1506,0.5151,-0.0251,1.515,-24.194,-13.085,-52.64,-4.15,2.39,11.99,9.59
5445,1285.35,1691.50,1639.93,0.0776,-0.3689,1.5503,1.109,-18.160,-20.396,-2.66,1.36,0.1829,-0.5942,0.7917,1.854,1.072,-0.638,-10.49,-37.00,1.0974,0.3882,0.0244,-0.592,-19.888,27.037,-53.28,-2.35,2.42,11.77,9.35
5469,1255.53,962.20,941.25,-0.0720,0.0476,1.0083,6.544,1.993,-39.709,-2.47,1.55,0.1946,-0.5957,0.8044,1.487,2.950,-1.982,-10.43,-36.95,0.9935,-0.0397,0.1576,8.828,-42.087,40.762,-54.85,-2.37,2.43,11.45,9.02
5484,610.04,506.89,452.09,-0.2104,0.4409,0.9575,19.857,10.161,-40.518,-2.05,2.30,0.1985,-0.6025,0.7905,-1.993,0.797,-0.562,-10.43,-36.99,0.9381,-0.2317,0.0660,-6.440,-50.423,39.815,-55.99,-3.90,2.41,11.04,8.63
5509,2086.37,1872.01,1655.24,0.2427,-0.1416,1.2310,-3.822,5.047,-40.899,-2.11,2.03,0.1677,-0.5955,0.7947,1.778,2.965,1.499,-10.34,-36.94,0.9543,-0.2806,-0.2681,1.866,-39.354,-8.032,-57.18,-6.45,2.40,10.58,8.17
5523,2412.75,2104.91,2011.43,-0.1753,0.1299,1.2527,1.186,7.245,-31.006,-1.81,2.12,0.2024,-0.6094,0.7937,2.022,0.004,-4.867,-10.37,-36.93,0.9824,-0.1808,-0.3575,-14.027,-2.789,-26.185,-57.44,-9.58,2.38,10.11,7.73
5548,739.78,953.33,1070.18,0.5791,0.0574,1.2834,-1.914,-3.488,-38.945,-2.34,2.08,0.1899,-0.6055,0.7881,-4.055,2.187,1.683,-10.32,-37.04,1.0211,0.1084,-0.1702,9.240,40.295,-40.933,-56.88,-6.22,2.39,9.75,7.36
5563,871.14,1099.19,1065.35,0.0173,-0.1509,1.2632,2.453,9.688,25.223,-2.17,1.94,0.1377,-0.5979,0.7749,1.106,3.836,-2.027,-10.22,-37.03,1.0439,0.2025,0.0134,1.667,55.348,-28.307,-56.53,-4.34,2.40,9.43,7.03
5578,1355.46,1438.46,1278.10,0.1453,0.0066,1.2256,33.720,7.443,-22.167,-2.15,2.39,0.2019,-0.6030,0.8044,6.159,-0.806,-4.165,-10.26,-36.94,1.1362,0.2355,0.2034,4.995,40.570,-14.017,-56.31,-3.20,2.40,9.15,6.75
5602,1379.63,1408.64,1594.80,0.0737,0.3872,1.4937,30.269,-6.648,-18.945,-2.33,3.37,0.2019,-0.6179,0.7859,-6.451,0.507,0.263,-10.27,-37.12,1.0647,0.2010,0.1381,3.224,-0.957,24.686,-56.75,-1.95,2.42,8.86,6.45
5617,1011.36,1143.52,1328.06,0.0747,0.0791,1.4824,-31.685,-20.679,8.154,-2.63,2.91,0.1731,-0.6069,0.7810,-0.818,0.416,0.034,-10.25,-37.15,1.1113,0.1051,-0.0388,5.255,-3.262,37.296,-57.34,0.37,2.45,8.58,6.13
5632,809.89,1010.55,1104.84,0.2004,-0.2034,1.4795,-52.127,-54.969,22.612,-3.52,1.95,0.1707,-0.5933,0.7915,7.365,4.263,-3.188,-10.18,-37.04,1.0189,0.0281,-0.2150,-2.913,17.791,47.800,-57.50,3.77,2.55,8.37,5.82
5656,2200.00,1967.91,1855.90,0.1890,-0.0273,1.5027,-108.631,-71.198,67.940,-5.32,-0.74,0.1968,-0.5906,0.8044,-2.742,-0.683,1.545,-10.22,-37.09,0.9436,-0.1536,-0.0862,8.064,53.028,29.525,-56.66,1.51,2.77,8.36,5.59
5671,1865.57,1755.97,1791.43,0.1362,-0.0115,1.3926,-140.524,-76.053,72.337,-6.42,-2.75,0.1677,-0.5911,0.7837,-3.184,2.156,-1.600,-10.18,-37.13,0.9296,-0.1888,0.1842,9.224,50.677,10.624,-56.28,0.69,3.05,8.45,5.40
5696,1019.41,1237.00,1200.73,0.0347,0.0144,1.1572,-124.524,-91.381,62.826,-8.54,-5.71,0.1956,-0.5930,0.8040,0.266,-1.996,-1.539,-10.24,-37.11,0.9171,-0.0996,0.3901,-0.745,11.913,-28.673,-56.19,0.38,3.46,8.69,5.23
5710,1502.93,1548.06,1413.48,0.0815,-0.1379,1.0562,-97.211,-81.579,49.238,-9.63,-7.14,0.1953,-0.5981,0.7932,-0.711,1.500,-2.180,-10.24,-37.12,1.0800,0.0905,0.2780,-1.722,-19.965,-31.116,-56.85,0.70,3.91,8.94,5.03
5735,1292.60,1336.92,1461.83,0.1824,-0.2673,1.0745,-110.158,-77.579,26.902,-11.51,-9.95,0.1758,-0.5959,0.7949,1.533,0.782,-2.104,-10.22,-37.08,1.1115,0.3236,-0.0785,-3.417,-21.217,-4.246,-57.69,2.68,4.47,9.25,4.78
5750,992.82,1129.01,1276.48,0.2361,-0.1575,1.1960,-140.189,-68.160,27.314,-12.48,-11.91,0.1985,-0.5964,0.8020,-1.047,-3.569,-3.691,-10.29,-37.09,1.0781,0.2649,-0.1510,-0.898,-3.155,23.327,-58.07,5.01,5.05,9.58,4.53
5775,2079.12,1909.89,1764.84,0.1189,0.0264,1.1938,-133.257,-67.671,25.604,-13.98,-14.88,0.1995,-0.6064,0.7815,-3.123,0.675,-0.638,-10.29,-37.18,0.9570,-0.0835,0.0718,14.140,12.280,33.449,-58.28,4.26,5.69,9.98,4.29
5789,2107.33,1899.41,1810.77,0.1841,-0.1709,1.1165,-106.005,-59.427,10.139,-14.75,-16.28,0.1567,-0.6047,0.7837,0.571,0.950,2.370,-10.25,-37.18,0.9550,-0.2426,0.2094,1.774,5.990,19.953,-58.46,3.22,6.34,10.38,4.04
5814,924.32,1117.73,1204.76,0.2764,-0.3918,1.1248,-82.158,-59.076,6.383,-16.15,-18.34,0.1829,-0.5813,0.8076,7.869,1.500,-0.943,-10.22,-36.96,0.9746,-0.2211,0.0753,-3.005,-18.621,-18.551,-59.27,1.66,7.05,10.81,3.75
5829,1156.41,1335.31,1299.05,0.2307,-0.3953,1.0801,-110.784,-63.854,23.528,-16.96,-19.95,0.1912,-0.5896,0.8098,-2.192,-0.027,-0.684,-10.23,-36.97,0.9965,-0.0325,-0.0653,-7.722,-14.774,-27.070,-60.01,-1.56,7.77,11.20,3.43
5853,1603.66,1541.61,1602.05,0.2151,-0.2407,0.9785,-95.746,-67.610,35.421,-18.51,-22.16,0.1782,-0.6094,0.7688,-1.108,0.614,1.255,-10.22,-37.03,1.0747,0.2030,-0.1605,0.583,19.180,-16.322,-59.88,1.06,8.54,11.69,3.15
5868,1216.04,1276.48,1405.42,0.2402,-0.2920,0.9617,-46.463,-56.847,11.864,-19.22,-22.72,0.2002,-0.5984,0.7964,6.236,-0.149,-2.287,-10.24,-36.93,1.0674,0.1880,0.0126,9.744,29.379,1.754,-59.86,2.90,9.31,12.19,2.88
5893,1732.60,1712.45,1551.28,0.3765,-0.4175,1.0667,-39.425,-51.885,3.192,-20.46,-23.65,0.1821,-0.5876,0.8037,-0.833,1.561,0.400,-10.21,-36.94,1.0181,0.0261,0.3430,3.072,10.814,13.999,-59.82,3.00,10.12,12.75,2.63
5908,2122.64,1920.37,1751.94,0.3330,-0.5063,0.9851,-60.005,-55.625,2.612,-21.18,-24.58,0.1794,-0.6021,0.7954,-4.619,-1.157,0.064,-10.23,-37.01,1.0004,-0.0527,0.3340,-2.852,-17.797,11.128,-60.31,2.72,10.92,13.29,2.37
5932,908.21,1112.89,1237.00,0.3337,-0.3328,1.0742,-75.639,-49.931,-0.167,-22.30,-26.27,0.1860,-0.6055,0.7915,-1.154,-0.775,0.522,-10.25,-37.05,0.9967,-0.0175,-0.0197,-8.211,-36.514,4.365,-61.76,-0.30,11.73,13.76,2.03
5947,939.63,1159.63,1245.86,0.3652,-0.3108,1.0872,-98.570,-59.854,1.910,-23.07,-27.47,0.1907,-0.5964,0.7910,2.342,0.813,-0.546,-10.25,-37.01,1.0367,0.0078,-0.2213,-4.241,-19.262,2.869,-62.36,3.21,12.55,14.22,1.67
5972,2013.04,1788.21,1735.82,0.4402,-0.3840,1.0913,-73.746,-35.931,-11.083,-23.90,-29.10,0.1885,-0.5908,0.8032,-2.299,-2.561,1.683,-10.32,-37.05,1.0160,-0.0487,-0.1531,5.957,23.470,2.640,-62.16,0.04,13.36,14.71,1.35
5986,1482.78,1439.27,1540.00,0.3469,-0.3926,0.9595,-65.547,-64.862,-1.785,-24.72,-29.90,0.1892,-0.5994,0.7939,-5.505,-2.332,0.522,-10.37,-37.13,0.9952,-0.0911,0.0728,7.530,34.280,-3.605,-62.09,-0.88,14.17,15.23,1.07
6011,1352.23,1490.04,1403.00,0.2839,-0.4084,0.8569,-61.654,-69.625,8.062,-26.25,-31.31,0.1833,-0.5952,0.7825,-0.253,-0.653,2.232,-10.39,-37.14,1.0070,-0.0338,0.3152,0.751,8.890,-16.795,-62.09,-0.97,15.02,15.82,0.80
6026,1934.07,1788.21,1614.95,0.4021,-0.5020,0.7432,-88.708,-53.931,39.345,-26.98,-32.64,0.1853,-0.5894,0.8079,2.358,-1.279,-0.775,-10.41,-37.09,1.0255,0.0837,0.2395,-3.508,-12.102,-16.627,-62.54,-0.61,15.87,16.39,0.52
6051,1039.56,1202.34,1377.22,0.4419,-0.6465,0.7388,-95.914,-40.862,32.169,-27.93,-35.17,0.1963,-0.6018,0.7957,-7.322,-0.485,2.293,-10.43,-37.27,1.0790,0.1938,-0.0269,-4.501,-19.415,2.808,-63.36,1.25,16.72,16.93,0.21
6066,820.37,1121.76,1269.23,0.5227,-0.7324,0.8625,-84.692,-38.114,12.490,-28.42,-36.50,0.1921,-0.6194,0.7720,-3.474,1.179,1.912,-10.43,-37.35,1.0536,0.1603,-0.0950,-0.623,-7.720,16.930,-63.80,3.62,17.55,17.44,-0.11
6090,2270.11,1930.04,1749.52,0.4551,-0.7019,0.7686,-103.410,-47.045,32.612,-29.46,-39.12,0.2019,-0.5950,0.8057,10.694,2.156,-2.638,-10.39,-37.07,0.9913,-0.0905,0.0281,5.438,8.951,21.724,-64.00,2.23,18.40,17.97,-0.43
6105,2062.20,1792.23,1714.87,0.4629,-0.6045,0.8188,-95.395,-45.900,35.895,-30.02,-40.44,0.1775,-0.5813,0.8174,1.854,1.729,0.690,-10.36,-37.01,0.9579,-0.1844,0.1282,1.270,6.692,10.243,-64.16,1.10,19.22,18.49,-0.74
6130,863.88,1187.03,1267.62,0.4509,-0.6365,0.7532,-110.647,-60.190,43.055,-31.38,-43.12,0.1829,-0.6064,0.7859,-6.528,-2.928,0.415,-10.43,-37.18,0.9785,-0.1243,0.1017,-2.699,-5.781,-17.269,-64.63,-0.00,20.08,19.03,-1.05
6144,1369.96,1501.32,1391.72,0.3999,-0.5657,0.6863,-103.166,-59.473,36.826,-32.09,-44.53,0.1890,-0.6062,0.7866,-1.993,-2.790,-2.501,-10.48,-37.22,1.0247,0.0133,-0.0087,-2.394,-7.140,-21.727,-65.22,2.42,20.93,19.55,-1.38
6169,1380.44,1414.29,1511.79,0.4050,-0.6711,0.6155,-67.120,-49.793,14.108,-33.14,-46.23,0.1836,-0.6108,0.7905,2.281,2.965,0.461,-10.41,-37.17,1.0714,0.1722,-0.0508,2.079,9.699,-8.750,-65.29,4.55,21.79,20.10,-1.70
6184,946.89,1174.95,1374.80,0.4116,-0.7434,0.5435,-80.952,-51.045,16.994,-33.69,-47.55,0.1831,-0.5974,0.7837,5.029,1.790,-1.096,-10.38,-37.10,1.0474,0.1553,0.0378,3.713,16.203,4.166,-65.38,6.04,22.64,20.64,-2.00
6209,2128.28,1871.21,1636.70,0.3250,-0.7275,0.4041,-135.105,-54.709,64.872,-34.78,-51.10,0.1946,-0.5908,0.8101,-3.581,-1.615,-0.959,-10.44,-37.17,1.0227,0.0016,0.2280,1.041,2.402,15.159,-65.56,5.96,23.50,21.21,-2.29
6223,2387.77,1955.02,1753.55,0.3679,-0.7935,0.4294,-131.303,-41.518,78.246,-35.12,-53.19,0.1924,-0.6074,0.7925,-7.474,-1.386,0.064,-10.46,-37.28,1.0020,-0.0555,0.2158,-2.638,-12.621,10.319,-65.98,5.51,24.32,21.73,-2.59
6248,709.16,1096.78,1237.00,0.4949,-0.8364,0.6570,-102.662,-28.129,61.467,-35.60,-55.65,0.1812,-0.5984,0.7732,5.655,2.248,0.018,-10.41,-37.15,1.0139,-0.0601,-0.0209,-5.585,-22.209,0.197,-66.93,3.08,25.11,22.18,-2.93
6263,880.81,1228.94,1276.48,0.4446,-0.8560,0.5352,-81.089,-34.099,58.291,-35.85,-56.86,0.2019,-0.5964,0.8074,8.526,1.057,-3.432,-10.42,-37.02,1.0016,-0.0121,-0.1243,-3.890,-10.377,-2.215,-67.40,-0.53,25.88,22.59,-3.29
6288,1919.56,1689.89,1672.16,0.3821,-0.8823,0.4543,-36.387,-12.557,12.246,-35.86,-57.86,0.1843,-0.5950,0.8049,-6.360,0.263,0.232,-10.41,-37.16,1.0289,-0.0009,-0.0500,0.858,19.028,-3.574,-67.33,-4.07,26.58,22.97,-3.62
6302,1268.42,1342.56,1475.53,0.3918,-0.8669,0.4414,-37.792,-14.663,16.520,-35.79,-58.51,0.1921,-0.6121,0.7717,-5.841,-1.722,0.782,-10.45,-37.27,0.9539,-0.0111,0.0963,7.973,15.501,-7.895,-67.45,-4.01,27.24,23.31,-3.92
6327,1601.25,1606.89,1479.56,0.3770,-0.8096,0.4897,6.315,-6.389,5.299,-35.67,-58.36,0.1924,-0.5928,0.8037,10.022,3.317,-3.111,-10.37,-37.01,1.0173,0.0254,0.2598,-2.714,0.524,-8.459,-67.60,-3.88,27.84,23.61,-4.23
6342,2282.20,1930.84,1668.94,0.3591,-0.8311,0.4370,48.056,0.787,-5.464,-35.36,-57.76,0.1880,-0.5784,0.8135,4.068,0.156,0.476,-10.38,-36.92,1.0256,0.0754,0.1890,1.560,-19.858,-9.513,-68.10,-3.35,28.38,23.84,-4.54
6366,781.68,1111.28,1302.27,0.3823,-0.9780,0.3599,51.292,9.077,-9.861,-34.84,-56.75,0.1853,-0.6045,0.7859,-7.993,-1.538,2.247,-10.42,-37.13,1.0212,0.1226,-0.0715,-0.882,-18.667,5.098,-68.84,-0.90,28.84,23.95,-4.89
6381,699.49,1112.89,1270.84,0.3894,-1.0222,0.4231,33.628,7.718,-5.617,-34.42,-56.48,0.1858,-0.6094,0.7715,-1.871,-0.103,-0.913,-10.43,-37.18,1.0519,0.0553,-0.1139,-4.180,-5.919,13.312,-69.21,2.14,29.24,24.01,-5.23
6406,2320.88,1881.69,1728.57,0.3877,-0.9155,0.4248,1.766,-0.511,17.757,-34.16,-56.61,0.1729,-0.5918,0.8062,7.854,2.233,-0.653,-10.36,-36.97,0.9623,-0.0745,0.0291,1.973,9.822,9.541,-69.29,0.77,29.60,24.04,-5.56
6420,1703.59,1577.07,1602.05,0.3672,-0.8391,0.4907,30.941,16.039,4.734,-33.66,-56.23,0.1885,-0.5923,0.8018,0.465,0.904,-1.295,-10.35,-36.95,0.9929,-0.1313,0.1095,3.194,5.928,-2.215,-69.43,-0.20,29.89,24.02,-5.88
6445,1121.76,1340.15,1327.25,0.2778,-0.6340,0.5115,112.331,34.222,-12.640,-32.53,-53.40,0.1819,-0.6101,0.7739,-4.955,-1.080,-0.226,-10.38,-37.10,1.0077,-0.0238,0.0663,1.545,-6.804,-13.910,-69.92,-0.55,30.09,23.89,-6.21
6460,1830.11,1703.59,1531.14,0.3206,-0.7361,0.4360,205.659,65.993,-39.556,-31.35,-50.59,0.1858,-0.6057,0.7891,1.197,-3.722,0.339,-10.44,-37.09,1.0369,0.0669,-0.0371,2.339,-4.316,-15.467,-70.30,1.87,30.19,23.65,-6.53
6485,1037.14,1200.73,1396.56,0.4365,-0.9404,0.6304,261.521,98.329,-91.052,-28.75,-44.33,0.1890,-0.6042,0.7974,-2.421,-0.073,1.652,-10.45,-37.15,1.0740,0.1067,-0.0132,-0.455,17.928,-0.994,-70.14,3.76,30.09,23.27,-6.83
6499,719.63,1069.38,1276.48,0.4243,-0.8459,0.7202,179.460,77.291,-66.396,-27.48,-41.86,0.1853,-0.5977,0.7908,-5.383,-2.653,3.560,-10.49,-37.23,1.0042,0.0502,0.0621,9.148,13.074,7.892,-70.26,4.60,29.92,22.81,-7.10
6524,2390.18,1971.14,1702.78,0.3074,-0.5073,0.7537,148.773,69.581,-41.266,-25.62,-38.08,0.2043,-0.5989,0.7920,-0.100,-3.111,1.362,-10.59,-37.22,0.9628,-0.0361,0.1991,4.873,0.020,3.999,-70.42,4.42,29.61,22.25,-7.37
6539,2206.45,1819.63,1722.93,0.2109,-0.2900,0.7231,224.254,94.253,-60.625,-24.06,-34.56,0.1956,-0.5986,0.7974,1.625,1.820,0.935,-10.57,-37.20,1.0157,-0.0559,0.1500,-5.508,-6.911,-0.826,-70.73,3.84,29.22,21.59,-7.63
6563,773.63,1166.08,1283.74,0.3010,-0.4993,0.7854,378.941,150.024,-120.029,-20.30,-25.31,0.1824,-0.5876,0.8042,5.503,1.759,9.041,-10.52,-37.04,1.0261,0.0641,-0.0092,-2.119,-8.835,-2.139,-71.26,5.68,28.60,20.68,-7.92
6578,1186.23,1405.42,1353.85,0.0090,-0.6172,1.0520,413.292,163.596,-146.838,-17.52,-19.41,0.1997,-0.6077,0.8096,7.045,6.950,2.049,-10.44,-36.94,1.0482,0.0621,-0.0621,0.156,-0.224,0.853,-71.54,8.27,27.83,19.62,-8.22
6603,1480.37,1436.85,1539.19,0.0901,-0.2144,1.3003,268.758,88.527,-132.518,-15.10,-12.67,0.1167,-0.5771,0.7695,2.068,9.072,0.858,-10.14,-36.88,0.9971,0.0004,0.0698,1.453,9.883,6.609,-71.59,8.14,26.97,18.46,-8.51
6618,998.46,1196.70,1397.36,0.1624,-0.1787,1.1072,195.842,2.039,-112.289,-14.93,-9.78,0.1812,-0.5747,0.8044,10.816,4.416,-9.554,-10.09,-36.70,1.0087,-0.0597,0.1387,4.034,6.173,2.060,-71.70,7.57,26.16,17.36,-8.80
6643,1972.75,1806.74,1577.88,0.2612,0.1931,1.1936,215.399,96.894,-109.251,-12.51,-4.15,0.2415,-0.5999,0.8164,-18.207,-8.149,-1.356,-10.35,-37.14,1.0089,-0.0579,0.0874,0.232,-5.980,-10.750,-72.09,6.76,25.22,16.14,-9.08
6657,2381.32,1981.61,1720.51,0.2585,-0.0181,1.0742,233.140,83.581,-119.021,-11.33,-0.73,0.1670,-0.6226,0.7583,-20.451,-1.187,13.240,-10.35,-37.48,0.9957,0.0022,0.0072,1.698,-10.743,-15.742,-72.59,6.98,24.26,14.89,-9.37
6682,733.33,1070.99,1283.74,0.3342,-0.0598,1.1418,130.315,62.329,-78.930,-9.92,2.39,0.1980,-0.6116,0.7939,26.342,1.820,-3.753,-10.33,-36.84,1.0776,0.0869,-0.0272,-2.714,5.761,-9.421,-72.71,8.93,23.27,13.62,-9.65
6697,823.59,1170.11,1277.29,0.3135,0.0417,1.1687,76.880,38.818,-62.869,-9.47,3.48,0.1772,-0.5596,0.8438,11.213,3.454,1.545,-10.27,-36.61,0.9722,0.1163,0.0612,6.782,7.196,-3.971,-72.80,10.09,22.33,12.40,-9.93
6722,2195.16,1863.96,1739.05,0.1814,0.3130,1.2712,33.109,40.604,-39.113,-8.42,4.51,0.1604,-0.5996,0.7759,-19.184,-6.821,0.354,-10.42,-37.11,1.0486,0.0417,0.1654,-0.592,1.837,1.846,-72.91,10.16,21.36,11.18,-10.18
6737,1622.20,1536.78,1614.95,0.1858,0.2776,1.1729,71.048,30.237,-42.396,-7.99,5.71,0.2222,-0.6223,0.7747,-6.894,-7.050,-0.546,-10.56,-37.25,0.9967,0.0457,0.1425,-1.386,-12.988,2.777,-73.27,10.29,20.43,10.00,-10.43
6762,1226.52,1405.42,1336.92,0.1499,0.2183,1.1182,107.445,51.947,-61.571,-6.72,8.43,0.1763,-0.6038,0.7820,7.900,4.187,1.942,-10.45,-37.06,1.0168,0.0543,-0.0155,-5.478,-17.568,7.693,-73.97,12.07,19.47,8.76,-10.71
6776,1766.45,1733.41,1508.57,0.1414,0.1694,1.0786,111.873,57.306,-59.647,-5.90,10.07,0.1685,-0.5769,0.8049,15.503,6.492,0.767,-10.34,-36.81,1.0157,0.0370,-0.0900,-1.844,-10.041,9.541,-74.32,14.95,18.54,7.52,-11.01
6801,1108.06,1237.00,1427.18,0.1238,0.3096,1.1360,80.880,41.688,-31.647,-4.89,12.13,0.1865,-0.5762,0.8247,-9.856,-5.218,1.118,-10.47,-37.01,0.9668,-0.0260,-0.0118,4.690,13.272,6.197,-74.28,12.48,17.59,6.31,-11.28
6816,864.69,1108.06,1295.02,0.1204,0.3247,1.1135,85.918,40.848,-27.754,-4.32,13.45,0.1924,-0.6062,0.7893,-18.543,-5.935,-0.363,-10.57,-37.29,1.0603,-0.0619,0.0909,-1.417,18.463,5.083,-74.21,11.52,16.66,5.14,-11.52
6841,2204.03,1938.10,1720.51,0.0981,0.4111,1.1543,112.117,58.634,-64.777,-2.90,16.31,0.1902,-0.6152,0.7700,5.625,1.607,-1.554,-10.54,-37.18,1.0269,0.0094,0.1627,-4.165,3.089,-1.879,-74.27,11.26,15.70,3.95,-11.74
6855,2062.20,1829.30,1722.93,0.0588,0.4595,1.1689,152.437,69.749,-79.983,-1.90,18.59,0.1860,-0.5925,0.7991,14.251,4.324,0.141,-10.48,-36.96,1.0319,0.0552,0.0851,-5.310,-1.827,-0.154,-74.50,11.62,14.74,2.76,-11.98
6880,904.98,1166.08,1282.12,0.1323,0.3582,1.2007,187.644,72.970,-83.128,-0.21,23.11,0.1677,-0.5791,0.8147,-1.780,1.332,1.087,-10.42,-36.97,1.0559,0.0908,-0.0049,0.492,-1.430,7.281,-74.74,13.26,13.73,1.52,-12.21
6895,1237.00,1436.04,1371.58,0.1045,0.4045,1.2163,152.254,59.779,-80.533,0.56,25.20,0.1655,-0.5933,0.7883,-13.062,-5.752,0.705,-10.49,-37.16,1.0234,0.0294,0.0059,0.461,4.448,12.655,-74.95,14.57,12.73,0.29,-12.44
6920,1462.64,1439.27,1508.57,-0.0164,0.6836,1.1038,131.079,40.314,-63.602,1.54,28.51,0.1968,-0.6167,0.7910,-3.520,-2.271,0.980,-10.56,-37.26,1.0156,-0.0771,0.0768,-0.760,3.394,8.304,-75.05,13.36,11.73,-0.92,-12.66
6934,1044.40,1162.86,1353.85,-0.0488,0.6267,1.0640,124.819,43.260,-40.838,2.18,30.34,0.1921,-0.6208,0.7793,4.098,4.294,-0.073,-10.50,-37.23,0.9891,-0.0826,0.0951,1.438,0.448,0.365,-75.20,12.29,10.76,-2.11,-12.87
6959,1959.85,1851.06,1611.72,0.0759,0.6624,1.1570,141.964,31.031,-64.182,2.82,33.78,0.1833,-0.5933,0.8171,12.816,1.973,-2.867,-10.45,-36.89,1.0128,-0.0216,0.0262,-2.928,-1.675,-11.208,-75.49,11.19,9.82,-3.27,-13.09
6974,2256.41,1945.35,1731.79,-0.0671,0.6843,1.0178,127.506,19.230,-57.434,3.10,35.61,0.1780,-0.5708,0.8333,-3.444,-2.439,0.400,-10.48,-36.89,1.0315,0.0598,0.0042,-1.218,0.524,-8.383,-75.71,12.67,8.92,-4.40,-13.31
6998,808.28,1083.08,1286.96,-0.1406,0.8972,0.9773,117.338,24.375,-36.060,3.75,38.59,0.1714,-0.6211,0.7546,-13.413,-3.050,1.576,-10.54,-37.27,1.0310,0.0969,0.0481,1.392,9.394,-0.582,-75.65,13.72,8.03,-5.48,-13.51
7013,929.96,1212.01,1296.63,-0.0645,0.7251,0.9878,141.857,22.985,-34.136,4.07,40.60,0.1846,-0.6118,0.7793,6.190,-0.760,-1.554,-10.55,-37.20,1.0317,0.0492,0.1095,-0.699,6.402,6.228,-75.71,13.92,7.19,-6.51,-13.70
7038,1972.75,1740.66,1676.19,-0.0886,0.5957,0.8662,99.598,9.856,-11.709,4.33,42.90,0.1885,-0.5898,0.8149,7.762,5.149,0.156,-10.43,-36.98,0.9978,-0.0150,0.1462,1.347,-9.278,7.174,-76.05,13.56,6.39,-7.52,-13.91
7053,1356.26,1353.85,1493.26,-0.1077,0.6743,0.8762,70.850,21.581,9.299,4.66,43.81,0.1702,-0.5830,0.8030,0.159,2.706,1.515,-10.37,-36.96,1.0143,-0.0510,0.0726,-2.547,-12.545,0.991,-76.41,12.55,5.63,-8.50,-14.13
7077,1495.68,1560.15,1461.83,0.0042,0.7629,0.9270,35.308,8.253,23.986,4.76,44.58,0.1848,-0.5911,0.7996,-8.574,-6.103,-1.096,-10.53,-37.16,1.0123,0.0040,-0.0612,-2.730,-4.942,-1.834,-76.74,15.75,4.90,-9.44,-14.34
7092,2109.74,1898.61,1637.51,-0.0444,0.7292,0.9106,-3.990,19.184,37.330,4.99,44.40,0.1995,-0.6135,0.7837,-7.505,-2.271,0.415,-10.57,-37.29,1.0236,0.0175,-0.0475,2.812,6.127,-2.566,-76.86,18.68,4.21,-10.34,-14.55
7117,889.67,1108.06,1339.34,0.0093,0.7334,0.9763,-76.418,7.413,57.024,5.06,42.40,0.1743,-0.6042,0.7886,9.823,4.278,-0.623,-10.46,-37.05,1.0262,-0.0135,0.0808,3.881,14.753,-2.566,-76.67,18.21,3.57,-11.17,-14.74
7131,738.97,1075.82,1289.38,-0.0098,0.6641,0.9949,-106.647,-7.717,44.368,4.86,40.70,0.1816,-0.5889,0.8088,9.976,2.248,-1.737,-10.42,-36.89,0.9932,0.0044,0.1537,2.324,8.020,-3.391,-76.65,17.91,2.99,-11.93,-14.91
7156,2328.94,1936.48,1740.66,0.0449,0.7146,1.0959,-167.257,-29.381,71.024,4.01,36.49,0.1741,-0.5928,0.8044,-9.413,-2.103,1.102,-10.46,-37.11,1.0300,0.0502,0.1431,-2.531,-6.346,-4.292,-76.90,17.88,2.50,-12.59,-15.09
7171,1871.21,1647.99,1643.15,0.0801,0.6880,1.1292,-209.395,-49.473,83.101,3.15,33.38,0.1755,-0.6121,0.7808,-11.810,-4.088,0.583,-10.51,-37.30,1.0270,0.1001,0.0643,-4.027,-11.278,0.884,-77.19,18.61,2.11,-13.17,-15.27
7196,1026.67,1304.69,1306.30,0.0903,0.6289,1.1423,-259.624,-76.953,87.421,1.14,26.98,0.1899,-0.6042,0.7903,5.869,1.255,-0.867,-10.49,-37.15,1.0203,0.0637,-0.0179,0.186,-3.751,10.502,-77.46,20.35,1.89,-13.58,-15.47
7210,1637.51,1663.30,1492.45,0.1296,0.4978,1.1848,-268.799,-86.679,90.383,-0.24,23.06,0.1794,-0.5933,0.7996,6.633,5.194,0.476,-10.41,-37.05,1.0160,-0.0269,-0.0015,1.209,1.257,13.067,-77.67,18.10,1.78,-13.88,-15.66
7235,1212.82,1283.74,1465.86,0.1121,0.4216,1.1768,-271.166,-90.908,73.391,-2.55,16.38,0.1704,-0.5894,0.8066,2.358,-0.989,-1.356,-10.42,-36.97,0.9912,-0.0983,0.0723,-0.501,2.463,1.449,-77.71,16.65,1.84,-14.00,-15.85
7250,874.36,1104.84,1302.27,0.0164,0.2593,1.0312,-245.883,-85.457,63.635,-3.74,12.82,0.1550,-0.5752,0.8098,-0.818,2.019,-10.134,-10.36,-36.95,1.0074,-0.0779,0.0717,0.446,0.035,-7.406,-77.84,15.38,1.99,-14.04,-16.03
7275,2223.37,1980.81,1756.78,0.0669,0.1299,0.9141,-187.960,-36.205,28.795,-4.63,8.15,0.1799,-0.6050,0.7693,-7.276,-0.225,-0.470,-10.37,-37.15,1.0253,0.0444,0.0331,-0.699,0.860,-11.223,-78.00,16.12,2.19,-14.03,-16.22
7289,2247.55,1985.64,1874.43,0.0452,0.1589,0.9331,-148.127,-0.679,2.490,-4.60,6.05,0.1868,-0.6150,0.7798,9.045,1.790,-4.653,-10.35,-37.05,1.0460,0.0975,0.0231,-0.424,4.692,-7.330,-78.06,17.33,2.37,-14.02,-16.39
7314,722.86,900.15,930.77,-0.0515,0.0869,0.9980,-86.876,8.634,-11.938,-4.24,3.92,0.1980,-0.5854,0.8135,3.793,2.187,-2.852,-10.31,-36.93,1.0332,0.0771,0.0896,2.492,4.280,6.105,-78.07,17.85,2.52,-14.04,-16.56
7329,904.18,1114.51,924.32,0.1392,0.1167,1.0784,-21.944,11.963,-24.060,-4.13,3.65,0.1858,-0.5911,0.7937,-6.528,-3.477,1.164,-10.36,-37.02,1.0118,0.0284,0.1313,-0.409,1.119,8.945,-78.14,17.74,2.65,-14.07,-16.72
7353,1572.23,1320.00,1335.31,0.2217,0.0596,1.2175,-39.563,23.276,-5.831,-3.69,2.67,0.1890,-0.6125,0.7764,-4.390,0.523,0.599,-10.36,-37.15,1.0133,-0.0486,0.0975,-2.669,-9.354,5.113,-78.48,16.79,2.73,-14.15,-16.89
7368,810.70,606.01,477.07,0.1575,0.1084,1.1609,-53.944,15.963,12.017,-3.54,1.95,0.1917,-0.6018,0.7908,4.892,-0.775,-1.371,-10.38,-37.08,1.0028,-0.0394,0.0315,-1.234,-10.636,1.052,-78.80,15.41,2.80,-14.26,-17.07
7393,2077.51,2416.78,2552.16,0.1311,-0.0093,1.0840,-50.647,18.207,7.986,-3.17,0.67,0.1653,-0.5764,0.8167,2.785,3.408,-1.004,-10.28,-36.98,1.0195,-0.0018,-0.0491,-0.211,1.211,-4.215,-78.94,11.54,2.85,-14.40,-17.25
7407,2866.45,2974.43,3300.00,0.1152,-0.0352,1.0833,-49.929,28.039,11.421,-2.82,-0.10,0.1831,-0.5935,0.8010,-5.459,-1.233,0.446,-10.30,-37.05,1.0128,0.0208,-0.0168,1.759,8.707,-3.666,-79.01,13.91,2.86,-14.56,-17.42
7432,409.38,328.79,141.83,0.0869,-0.0422,1.0864,-44.952,35.077,7.238,-2.00,-1.23,0.1809,-0.6030,0.7981,-2.192,-0.561,-0.546,-10.31,-37.10,1.0186,0.0219,0.1122,2.324,10.524,-2.826,-78.84,13.91,2.82,-14.75,-17.57
7447,473.04,672.89,531.06,0.0833,-0.0325,1.0999,-33.593,44.375,-0.548,-1.41,-1.72,0.1912,-0.6062,0.7937,1.869,0.767,-0.959,-10.31,-37.08,1.0251,0.0258,0.1506,-0.104,2.692,-1.879,-78.86,13.82,2.74,-14.97,-17.71
7472,2439.34,2212.09,2385.35,0.0291,-0.0273,1.1541,-13.288,55.718,-21.617,-0.06,-2.04,0.1763,-0.5930,0.8071,4.526,1.591,-0.836,-10.27,-36.95,1.0206,0.0475,0.0964,-2.272,-9.904,1.708,-79.20,14.02,2.57,-15.30,-17.87
7486,1415.90,1177.36,1147.55,0.0085,0.0181,1.2334,6.453,63.077,-32.457,0.84,-1.89,0.1821,-0.5994,0.8042,-2.161,-1.615,0.522,-10.29,-36.98,1.0380,0.0381,0.0211,-1.814,-10.972,4.472,-79.53,14.93,2.35,-15.69,-18.04
7511,1313.55,1678.61,1681.83,0.2175,0.5112,1.3293,55.506,-27.411,-45.846,-0.02,-0.08,0.1731,-0.6294,0.7637,-3.734,0.981,1.713,-10.26,-37.12,1.0120,-0.0122,-0.0194,1.973,-1.797,6.365,-79.76,11.72,2.21,-16.00,-18.21
7526,2363.59,2658.53,2875.31,0.1987,-0.0059,1.1853,-0.234,12.375,4.475,-0.03,-0.09,0.1887,-0.6140,0.7800,0.648,-5.294,2.034,-10.35,-37.13,1.0066,-0.0542,0.0005,2.049,4.753,2.991,-79.83,9.73,2.07,-16.30,-18.37
7551,600.37,411.79,242.56,0.1626,-0.0737,0.7781,1.613,20.039,58.398,0.22,-0.15,0.2068,-0.6050,0.7976,2.984,-2.042,0.507,-10.42,-37.06,0.9978,-0.0270,0.0990,1.377,7.898,-5.895,-79.72,9.26,1.92,-16.59,-18.51
7565,323.15,351.36,152.31,0.1904,0.2793,1.5940,4.178,17.978,-33.678,0.34,0.11,0.1934,-0.5803,0.7847,-7.154,-3.477,0.461,-10.49,-37.15,1.0247,0.0074,0.0961,1.392,3.303,-7.406,-79.78,9.19,1.76,-16.87,-18.63
7580,565.71,812.31,696.26,-0.0723,0.4255,0.9048,-5.914,32.573,32.444,0.88,0.52,0.2131,-0.6252,0.8206,5.014,-7.218,-10.592,-10.61,-37.08,1.0280,0.0500,0.0923,0.156,0.341,-6.444,-79.86,9.57,1.57,-17.17,-18.75
7605,2210.48,1961.47,2050.11,-0.3130,0.0503,1.1321,6.621,3.779,29.757,1.26,0.73,0.1531,-0.5830,0.7637,-18.467,1.347,5.057,-10.55,-37.54,1.0498,0.0759,0.0604,-1.325,-3.232,3.128,-80.03,10.38,1.38,-17.49,-18.87
7619,1212.01,935.60,900.95,-0.4131,-0.0381,1.1724,0.666,10.894,17.574,1.78,0.68,0.1306,-0.6689,0.7668,3.487,2.049,-4.241,-10.46,-37.56,1.0142,0.0582,0.0596,0.217,-2.652,7.510,-80.18,11.06,1.16,-17.84,-19.00
7644,1646.37,1961.47,1996.12,-0.0066,0.2036,1.0027,10.040,-2.114,-35.128,1.70,1.14,0.1868,-0.5872,0.8381,14.083,7.225,-6.669,-10.28,-37.17,1.0090,-0.0364,0.0620,0.904,-2.423,6.915,-80.35,10.25,0.98,-18.17,-19.15
7658,2709.30,2908.35,3030.84,0.2957,0.1174,1.2607,2.361,-11.320,-7.266,1.24,1.26,0.1895,-0.5598,0.7969,-10.406,4.110,7.270,-10.23,-37.27,1.0078,-0.0616,0.0588,-1.890,-1.659,2.701,-80.47,9.10,0.85,-18.45,-19.30
7683,464.98,323.96,305.42,0.0796,0.0791,1.2615,3.582,9.550,11.146,1.38,1.39,0.2085,-0.6157,0.7859,-3.032,-3.218,-1.783,-10.34,-37.36,0.9994,-0.0151,0.0240,-0.959,0.707,-6.826,-80.61,8.25,0.71,-18.73,-19.44
7698,359.41,460.15,440.81,0.0237,0.0601,1.2786,-1.822,-8.465,32.475,1.21,1.39,0.1892,-0.5989,0.7930,-0.055,-0.363,0.812,-10.36,-37.36,1.0328,0.0164,0.0189,0.537,2.524,-6.887,-80.74,8.91,0.59,-18.99,-19.57
7712,751.87,1086.30,1061.32,-0.0540,0.0005,1.1655,-0.784,-0.495,15.177,1.23,1.36,0.2053,-0.6143,0.7869,2.510,2.584,-3.936,-10.35,-37.33,1.0317,0.0552,0.0369,1.087,5.974,-5.711,-80.76,9.87,0.47,-19.23,-19.70
7737,1877.66,1627.03,1646.37,0.0325,0.0208,1.2043,3.277,-2.923,1.925,1.11,1.43,0.1790,-0.5859,0.7991,0.984,1.851,-0.562,-10.30,-37.29,1.0332,0.0524,0.1042,1.530,3.303,2.426,-80.74,10.24,0.38,-19.45,-19.83
7752,967.03,758.32,845.35,0.0930,0.0061,1.2380,-3.486,-6.007,1.055,0.91,1.36,0.1841,-0.6052,0.7830,-2.589,-0.516,0.217,-10.31,-37.33,1.0170,0.0319,0.1207,-0.943,-0.499,5.052,-80.79,10.32,0.31,-19.64,-19.94
7766,439.19,358.61,497.22,0.0610,-0.0020,1.1743,1.537,4.619,9.635,0.90,1.35,0.1780,-0.6003,0.7886,-2.726,-3.355,0.583,-10.36,-37.37,1.0215,0.0017,0.0972,-0.928,-7.644,6.182,-80.97,10.12,0.24,-19.83,-20.06
7791,2898.68,2902.71,2684.32,0.0554,0.0281,1.2146,-0.540,-2.358,-0.258,0.77,1.33,0.1765,-0.6040,0.7891,-0.329,0.462,0.278,-10.34,-37.38,1.0106,-0.0146,0.0115,-1.432,-8.270,3.006,-81.34,8.84,0.18,-20.02,-20.20
7806,2743.96,2462.71,2360.37,0.0378,0.0251,1.2002,-0.204,-2.190,2.093,0.69,1.33,0.1892,-0.6101,0.7932,1.915,-0.241,0.171,-10.35,-37.36,1.0233,-0.0225,-0.0267,-0.745,-2.881,0.792,-81.51,5.86,0.13,-20.21,-20.34
7831,402.93,643.88,711.58,0.0537,0.0264,1.1963,0.040,0.466,0.047,0.64,1.33,0.1843,-0.5955,0.8008,0.663,0.095,0.415,-10.35,-37.33,1.0139,-0.0107,0.0087,1.820,7.165,-2.398,-81.49,4.76,0.09,-20.37,-20.47
7845,1031.50,1405.42,1356.26,0.0439,0.0420,1.1990,0.010,-1.076,-0.380,0.57,1.34,0.1873,-0.5981,0.7961,-2.390,-0.393,-0.180,-10.36,-37.35,1.0200,-0.0059,0.0643,1.591,9.883,-4.368,-81.45,4.59,0.06,-20.52,-20.58
7860,2062.20,2286.23,2114.58,0.0498,0.0459,1.2012,0.040,-0.602,-0.075,0.50,1.36,0.1843,-0.5989,0.7832,-0.925,-0.348,0.705,-10.37,-37.37,1.0126,0.0138,0.1080,1.423,6.677,-4.765,-81.40,4.66,0.03,-20.65,-20.68
7885,768.79,640.66,813.11,0.0513,0.0535,1.1970,0.071,-0.037,-0.182,0.44,1.39,0.1941,-0.5935,0.7949,1.686,0.355,-0.211,-10.38,-37.31,1.0284,0.0552,0.1155,-0.745,-2.591,-2.398,-81.49,5.06,0.01,-20.77,-20.79
7899,356.19,425.49,597.95,0.0532,0.0447,1.2058,-0.021,-0.633,-0.915,0.37,1.40,0.1865,-0.5952,0.7993,0.434,0.721,-0.241,-10.37,-37.29,1.0316,0.0618,0.0792,-1.478,-5.965,1.541,-81.64,5.70,-0.00,-20.89,-20.89
7914,449.67,726.08,814.73,0.0581,0.0498,1.1982,0.117,0.818,0.856,0.32,1.42,0.1897,-0.5898,0.7983,0.159,-0.317,-0.027,-10.38,-37.27,1.0363,0.0500,0.0459,-1.188,-5.552,5.037,-81.81,6.51,-0.01,-21.01,-21.00
7938,2473.99,2177.44,2105.71,0.0527,0.0430,1.2078,-0.021,-0.389,-0.380,0.25,1.43,0.1851,-0.5977,0.7998,-2.406,-0.439,0.614,-10.40,-37.32,1.0162,-0.0153,0.0316,0.003,-1.690,7.113,-81.97,5.87,-0.02,-21.13,-21.11
7953,1369.16,1160.44,1280.51,0.0508,0.0403,1.1978,0.010,-0.068,-0.304,0.20,1.44,0.1907,-0.6069,0.7812,-1.047,-0.088,-0.119,-10.41,-37.35,1.0004,-0.0442,0.0422,-0.104,0.493,3.663,-82.06,4.82,-0.02,-21.24,-21.22
7978,1407.84,1739.05,1619.78,0.0481,0.0371,1.1970,0.025,-0.312,-0.151,0.14,1.45,0.1885,-0.5991,0.7900,0.648,-0.454,-0.607,-10.43,-37.33,1.0120,-0.0404,0.0496,0.003,0.524,-4.276,-82.13,3.94,-0.02,-21.35,-21.33
7992,2564.25,2670.62,2361.98,0.0513,0.0359,1.1990,0.010,-0.190,-0.167,0.09,1.46,0.1819,-0.6011,0.7917,-0.696,0.141,-0.073,-10.42,-37.34,1.0139,-0.0017,0.0457,-0.180,0.707,-6.750,-82.23,3.82,-0.02,-21.45,-21.43
8017,470.62,443.22,676.12,0.0540,0.0369,1.2009,-0.036,-0.083,-0.121,0.03,1.46,0.1809,-0.6060,0.7869,-1.200,-1.050,-0.470,-10.45,-37.37,1.0337,0.0560,0.0332,0.140,2.509,-4.078,-82.25,4.93,-0.01,-21.54,-21.53
8032,248.21,446.45,634.21,0.0540,0.0396,1.1965,0.040,-0.144,-0.090,-0.02,1.47,0.1892,-0.6079,0.7859,-0.360,-0.348,0.034,-10.46,-37.38,1.0337,0.0646,0.0549,0.675,2.890,0.121,-82.27,5.84,-0.00,-21.62,-21.62
8046,506.08,877.58,936.41,0.0537,0.0400,1.2024,0.086,-0.053,-0.090,-0.07,1.48,0.1875,-0.6023,0.7910,1.213,0.492,-0.394,-10.46,-37.36,1.0333,0.0460,0.0723,0.186,1.883,3.510,-82.30,6.37,0.01,-21.70,-21.71
8071,2226.59,1895.38,1872.01,0.0520,0.0481,1.1985,-0.036,-0.144,-0.212,-0.13,1.50,0.1904,-0.5935,0.7979,1.411,0.309,-0.226,-10.46,-37.31,1.0188,-0.0009,0.0844,-0.608,-2.820,4.945,-82.43,6.22,0.03,-21.77,-21.80
8086,1109.67,939.63,1106.45,0.0547,0.0496,1.1987,0.010,0.192,-0.136,-0.17,1.51,0.1921,-0.5969,0.7979,-0.345,0.263,-0.073,-10.46,-37.31,1.0122,-0.0208,0.0720,-0.928,-4.301,3.006,-82.56,5.76,0.04,-21.85,-21.89
8110,1754.36,2047.69,1882.49,0.0527,0.0500,1.1990,-0.036,-0.144,-0.090,-0.22,1.53,0.1841,-0.5906,0.7905,-0.146,-0.149,0.110,-10.47,-37.30,1.0154,-0.0184,0.0227,-0.638,-2.178,-0.459,-82.73,4.85,0.06,-21.93,-21.99
8125,3017.95,2992.16,2530.40,0.0510,0.0479,1.2004,0.086,0.039,-0.197,-0.27,1.55,0.1909,-0.5945,0.7957,0.449,0.126,-0.531,-10.47,-37.28,1.0126,-0.0028,0.0183,0.156,1.730,-2.001,-82.83,4.58,0.08,-22.00,-22.08
8150,267.55,290.11,574.58,0.0513,0.0486,1.2056,-0.005,-0.160,-0.151,-0.31,1.56,0.1885,-0.5928,0.7944,-0.665,-0.149,0.003,-10.48,-37.29,1.0243,0.0096,0.0624,1.072,5.409,-3.040,-82.77,4.69,0.10,-22.07,-22.17
8164,167.62,406.96,617.29,0.0537,0.0432,1.2009,0.025,-0.083,-0.121,-0.36,1.57,0.1897,-0.5999,0.7961,-1.276,-0.363,-0.241,-10.49,-37.30,1.0211,0.0215,0.0869,0.522,3.837,-2.612,-82.76,4.88,0.12,-22.12,-22.25
8179,666.45,1097.58,1124.98,0.0540,0.0425,1.2041,0.102,-0.022,-0.182,-0.40,1.58,0.1851,-0.6045,0.7976,-0.971,0.095,0.171,-10.49,-37.31,1.0309,0.0316,0.1027,0.049,0.539,-1.635,-82.78,5.13,0.15,-22.17,-22.32
8204,1839.78,1508.57,1606.08,0.0518,0.0391,1.1973,0.040,-0.022,-0.228,-0.45,1.59,0.1550,-0.6230,0.7173,31.197,-45.371,-23.142,-11.57,-36.63,1.0243,0.0435,0.0695,-0.898,-4.591,1.861,-82.94,5.64,0.10,-22.23,-22.33
8218,750.26,556.04,824.40,0.0486,0.0454,1.1882,0.025,-0.373,-0.411,-0.49,1.60,0.2698,-0.7529,0.7622,-11.444,25.912,-29.691,-11.25,-36.95,1.0227,0.0326,0.0402,-1.127,-4.591,3.922,-83.09,6.29,0.08,-22.29,-22.36
8243,2216.92,2524.76,2215.31,0.0559,0.0447,1.1907,0.132,1.611,2.139,-0.49,1.62,0.0903,-0.7126,0.5667,-80.207,14.828,-18.775,-10.78,-39.19,1.0237,-0.0088,0.0203,-0.073,-1.323,4.319,-83.23,5.70,0.09,-22.35,-22.44
8258,3300.00,3300.00,2839.05,0.0627,0.0269,1.2178,0.056,0.512,0.948,-0.54,1.61,0.0691,-0.9658,0.6694,-7.993,55.362,-57.569,-9.84,-39.63,1.0089,-0.0267,0.0308,0.003,1.501,2.136,-83.30,4.76,0.17,-22.41,-22.59
8282,76.56,116.04,411.79,0.0518,0.0178,1.1907,-0.082,-0.236,-0.930,-0.58,1.59,-0.0598,-0.3145,1.6592,34.877,74.645,-94.531,-7.78,-38.20,1.0148,-0.0266,0.0570,0.736,2.600,-3.192,-83.30,4.19,0.39,-22.47,-22.86
8297,193.41,489.96,668.06,0.0571,0.0679,1.1716,0.132,-0.618,-0.502,-0.63,1.63,0.3850,-0.5356,0.8074,-27.810,-4.454,15.087,-8.13,-38.50,1.0184,0.0006,0.0607,0.843,1.913,-5.391,-83.34,4.13,0.58,-22.52,-23.10
8312,1004.10,1433.63,1392.53,0.0354,0.0354,1.1699,0.224,0.955,1.528,-0.64,1.63,0.1763,-0.5403,0.8574,-29.016,11.454,-9.707,-8.00,-38.80,1.0306,0.0314,0.0577,0.339,1.180,-4.979,-83.38,4.62,0.76,-22.57,-23.33
8336,1470.70,1172.53,1307.11,0.0627,0.0300,1.2053,-0.127,-1.579,-0.701,-0.73,1.63,0.0813,-0.5681,0.8982,-30.436,71.301,0.217,-6.19,-39.41,1.0298,0.0626,0.0681,0.125,0.783,0.304,-83.39,5.38,1.07,-22.61,-23.67
8351,485.13,307.84,604.40,0.0461,0.0508,1.1792,0.056,0.375,0.307,-0.75,1.64,0.1338,-0.9077,1.0239,-115.169,87.836,34.873,-4.93,-41.09,1.0327,0.0442,0.0701,0.064,0.035,3.754,-83.43,5.92,1.44,-22.64,-24.08
8366,56.41,127.33,381.17,0.0479,0.0505,1.3301,-0.265,0.390,-0.670,-0.77,1.65,0.1938,-0.9580,0.6858,-191.703,63.393,66.034,-4.11,-44.08,1.0173,0.0198,0.0760,-0.348,-1.400,5.647,-83.50,6.09,1.84,-22.68,-24.53
8390,3300.00,3300.00,2837.44,0.0884,0.0334,1.2026,0.575,2.405,-0.350,-0.78,1.66,0.2888,-0.9187,0.9539,-170.711,-24.546,8.950,-4.87,-48.22,1.0010,-0.0272,0.0538,-0.455,-4.041,3.647,-83.66,5.42,2.17,-22.73,-24.89
8405,2660.15,2238.68,2118.61,0.0759,0.0085,1.2439,0.010,-1.350,-1.281,-0.86,1.64,0.3416,-0.8811,0.8103,-107.032,-11.615,-3.936,-5.26,-49.73,1.0073,-0.0305,0.0391,-0.699,-3.430,0.563,-83.78,4.54,2.44,-22.78,-25.22
8430,425.49,798.61,877.58,0.0601,0.0403,1.2061,-0.127,-0.618,-0.563,-0.91,1.64,0.1860,-0.7683,0.6821,-74.833,-35.706,-31.310,-6.23,-51.52,1.0140,-0.0034,0.0182,-0.089,1.944,-3.910,-83.83,4.23,2.64,-22.82,-25.46
8444,1546.45,1944.54,1779.34,0.0583,0.0369,1.2112,0.071,-0.190,-0.136,-0.95,1.64,0.1213,-0.6538,0.7026,-62.482,-27.432,-31.233,-6.64,-52.24,1.0247,0.0170,0.0311,1.408,4.341,-4.383,-83.85,4.74,2.80,-22.86,-25.65
8469,1059.71,773.63,992.82,0.0571,0.0405,1.2051,-0.143,-0.480,-0.289,-1.00,1.65,0.1846,-0.7761,0.5615,-42.116,-17.935,-37.356,-7.16,-53.30,1.0243,0.0405,0.0924,0.950,5.532,-1.757,-83.73,5.14,2.91,-22.88,-25.79
8483,259.49,187.77,473.04,0.0447,0.0527,1.1882,-0.066,-0.083,0.017,-1.02,1.66,0.2419,-0.7874,0.6804,-62.742,-31.890,-32.806,-7.73,-54.11,1.0215,0.0334,0.1102,0.110,1.761,0.304,-83.70,5.38,2.97,-22.90,-25.87
8508,3125.93,3275.82,2720.59,0.0701,0.0413,1.2007,-0.021,-0.862,-0.548,-1.09,1.67,0.2393,-0.7634,0.6521,-100.574,-58.775,-33.035,-9.28,-56.47,1.0239,0.0269,0.0850,-1.340,-5.201,2.945,-83.85,5.59,2.93,-22.92,-25.85
8523,3300.00,2976.85,2616.63,0.0505,0.0469,1.1921,-0.005,-0.419,0.536,-1.12,1.68,0.2607,-0.8342,0.5967,-88.543,-32.180,-36.836,-9.84,-57.69,1.0261,0.0179,0.0500,-1.325,-6.270,3.541,-84.01,5.85,2.85,-22.95,-25.81
8548,138.61,332.82,549.60,0.0544,0.0466,1.1973,0.025,-0.251,-0.380,-1.16,1.69,0.1982,-0.7747,0.6057,-100.803,-54.058,-36.577,-11.19,-60.04,1.0153,-0.0062,0.0131,-0.180,-2.346,3.708,-84.17,5.22,2.69,-22.99,-25.68
8562,622.93,1049.23,1075.82,0.0579,0.0361,1.2046,-0.066,-0.724,-0.289,-1.20,1.69,0.1929,-0.7461,0.5359,-89.429,-58.607,-33.004,-12.04,-61.20,1.0112,-0.0212,0.0179,0.461,1.196,1.770,-84.24,4.13,2.48,-23.03,-25.51
8587,2100.07,1764.84,1771.28,0.0454,0.0452,1.1895,0.086,1.306,0.078,-1.19,1.70,0.2825,-0.7976,0.4978,-69.077,-41.325,-21.539,-13.14,-62.83,1.0115,-0.0209,0.0490,0.583,3.394,-3.147,-84.21,3.60,2.21,-23.06,-25.27
8602,958.97,734.95,951.72,0.0527,0.0449,1.1956,-0.127,-0.389,-1.159,-1.22,1.71,0.2905,-0.8147,0.4556,-63.429,-46.882,-23.264,-13.90,-63.70,1.0172,0.0013,0.0630,0.400,2.600,-4.765,-84.22,3.56,1.91,-23.09,-24.99
8627,1928.42,2220.95,1996.92,0.0540,0.0408,1.1899,0.025,0.146,0.185,-1.24,1.72,0.3364,-0.8650,0.3108,-72.604,-51.477,-19.646,-15.27,-65.59,1.0338,0.0430,0.0634,-0.073,0.661,-3.192,-84.23,4.17,1.53,-23.11,-24.64
8641,3233.92,3103.37,2623.08,0.0522,0.0435,1.1953,-0.082,0.054,-0.090,-1.27,1.72,0.3518,-0.8896,0.2654,-86.528,-51.416,-17.447,-16.11,-66.98,1.0314,0.0532,0.0645,0.140,0.035,0.457,-84.25,4.88,1.12,-23.14,-24.26
8666,219.19,322.34,547.18,0.0432,0.0535,1.1807,0.086,0.161,-0.228,-1.28,1.74,0.3381,-0.8528,0.4392,-90.024,-48.821,-24.378,-17.37,-69.08,1.0167,0.0237,0.0718,-0.348,-0.621,4.701,-84.30,5.14,0.66,-23.16,-23.82
8681,268.35,567.33,722.05,0.0757,0.0698,1.1975,0.040,-1.488,-0.105,-1.35,1.77,0.3550,-0.8599,0.4434,-81.093,-50.027,-17.386,-18.13,-70.11,1.0173,-0.0059,0.0699,-2.730,-3.720,6.060,-84.39,4.90,0.17,-23.19,-23.36
8705,2777.80,2358.75,2216.12,0.1311,0.0747,1.1833,0.453,-0.007,3.085,-1.45,1.82,0.3765,-0.9163,0.1863,-72.161,-48.714,-25.554,-19.39,-72.03,1.0873,-0.0811,0.0508,-12.348,3.486,5.434,-84.31,3.34,-0.36,-23.20,-22.84
8720,1544.84,1302.27,1405.42,0.0718,0.0645,1.1763,-0.204,1.031,11.635,-1.47,1.85,0.4197,-0.8831,0.2136,-94.558,-59.493,-21.462,-20.34,-73.46,0.9023,-0.0482,-0.0110,2.049,7.257,-7.589,-84.26,1.25,-0.91,-23.20,-22.29
8745,1135.46,1529.52,1444.10,-0.0139,0.0154,1.1694,-0.082,-0.007,1.269,-1.43,1.82,0.3472,-0.8127,0.2249,-96.971,-52.073,-17.798,-21.65,-75.84,1.0546,0.0552,0.0360,-3.997,13.333,-12.887,-83.98,2.26,-1.53,-23.19,-21.66
8759,2328.94,2457.88,2191.14,0.0505,0.0425,1.1934,0.117,0.115,0.429,-1.45,1.83,0.4067,-0.8567,0.1826,-89.841,-47.126,-18.073,-22.39,-77.17,1.0123,0.1320,0.1193,-0.119,11.516,-10.688,-83.74,3.17,-2.15,-23.16,-21.01
8784,581.03,536.70,769.60,0.0496,0.0383,1.2004,0.025,-0.282,-0.182,-1.47,1.83,0.3579,-0.8213,0.1750,-83.535,-44.271,-16.898,-23.49,-79.22,1.0232,0.1079,0.1431,-0.882,0.219,4.731,-83.66,3.83,-2.80,-23.12,-20.32
8799,240.95,409.38,615.68,0.0498,0.0356,1.2021,-0.082,-0.022,-0.243,-1.49,1.82,0.4128,-0.8303,0.1206,-74.100,-45.035,-16.073,-24.18,-80.33,1.0172,0.0884,0.1466,-3.661,-10.759,11.434,-83.75,4.32,-3.45,-23.09,-19.64
8824,3249.23,2816.48,2498.97,0.0547,0.0374,1.2002,-0.036,-0.404,-0.167,-1.52,1.82,0.4089,-0.8472,0.0786,-78.085,-45.905,-12.424,-25.33,-82.31,0.9583,-0.0021,0.0406,-1.692,-11.430,12.334,-84.10,4.14,-4.14,-23.09,-18.95
8838,2413.55,2047.69,1980.81,0.0537,0.0349,1.1965,-0.021,-0.007,-0.212,-1.55,1.82,0.4070,-0.8416,0.0376,-77.169,-48.653,-8.913,-26.03,-83.52,1.0347,-0.0851,-0.0380,0.415,-11.278,11.357,-84.28,1.78,-4.82,-23.10,-18.28
8863,523.81,933.19,987.18,0.0552,0.0435,1.1997,0.025,-0.343,-0.243,-1.58,1.83,0.3931,-0.8308,0.0459,-73.077,-43.477,-2.562,-27.07,-85.36,0.9917,-0.0708,-0.0226,2.446,4.875,-2.444,-84.19,-0.35,-5.53,-23.10,-17.57
8877,1527.91,1860.73,1689.08,0.0537,0.0447,1.1982,0.040,-0.068,-0.167,-1.60,1.83,0.4216,-0.8220,-0.0215,-70.238,-43.966,1.057,-27.70,-86.48,1.0194,-0.0715,0.0005,4.125,12.112,-10.490,-84.05,-2.08,-6.23,-23.09,-16.85
8902,1093.55,928.35,1097.58,0.0537,0.0466,1.2014,-0.005,0.085,-0.167,-1.61,1.84,0.4021,-0.8103,-0.0562,-72.070,-37.432,2.492,-28.58,-88.39,1.0168,0.0374,0.1191,2.263,8.738,-11.864,-83.82,-1.63,-6.95,-23.06,-16.11
8917,362.64,439.19,679.34,0.0540,0.0505,1.1992,-0.005,-0.221,-0.228,-1.64,1.85,0.3757,-0.8105,-0.1189,-59.825,-30.073,2.309,-28.93,-89.44,1.0569,0.0890,0.1500,-1.493,6.814,-10.063,-83.66,-1.01,-7.63,-23.02,-15.39
8942,3064.69,2808.43,2445.79,0.0525,0.0515,1.2000,0.010,-0.037,-0.182,-1.65,1.86,0.4155,-0.8691,-0.1621,-57.810,-26.164,9.957,-29.49,-91.06,1.0636,0.0964,0.1147,-2.562,-6.759,4.731,-83.79,-0.25,-8.31,-22.99,-14.68
8956,3109.82,2593.26,2345.05,0.0535,0.0469,1.1992,0.056,-0.251,-0.121,-1.68,1.87,0.4656,-0.9182,-0.1567,-53.764,-27.951,10.232,-29.83,-92.00,1.0338,0.0895,0.0944,-2.150,-8.621,10.426,-83.89,0.59,-8.96,-22.97,-14.01
8981,244.98,545.57,713.19,0.0596,0.0403,1.1995,-0.021,-0.022,-0.258,-1.70,1.87,0.4922,-0.9636,-0.2336,-51.581,-17.019,4.110,-30.18,-93.49,1.0325,-0.0355,0.0168,-0.241,-7.033,11.846,-84.14,-0.72,-9.59,-22.96,-13.38
8996,733.33,1150.77,1174.14,0.0549,0.0427,1.2036,-0.066,-0.144,-0.060,-1.72,1.87,0.4309,-0.9043,-0.2217,-54.528,-11.706,2.354,-30.24,-94.48,0.9720,-0.0681,0.0088,-0.318,-4.148,8.640,-84.24,-2.36,-10.17,-22.96,-12.79
9020,1803.52,1509.38,1578.68,0.0532,0.0464,1.1968,-0.036,-0.114,-0.121,-1.74,1.88,0.4250,-0.8853,-0.2502,-53.016,-9.508,6.690,-30.36,-95.99,1.0065,-0.0765,0.0129,1.499,4.478,-5.711,-84.15,-3.88,-10.73,-22.96,-12.23
9035,790.55,703.52,937.22,0.0544,0.0435,1.1985,-0.051,-0.144,-0.228,-1.76,1.88,0.4309,-0.9087,-0.2761,-52.421,-11.355,6.828,-30.40,-96.95,1.0002,-0.0334,0.0344,1.606,6.707,-10.933,-84.12,-4.67,-11.24,-22.95,-11.71
9060,2175.02,2324.10,2055.75,0.0508,0.0442,1.1973,0.086,-0.022,-0.090,-1.77,1.89,0.4573,-0.9207,-0.2249,-58.451,-17.523,5.545,-30.74,-98.51,1.0216,0.0729,0.0848,0.354,8.921,-10.902,-83.90,-3.75,-11.74,-22.93,-11.18
9074,3279.85,2919.63,2495.75,0.0518,0.0430,1.1917,-0.112,0.054,-0.304,-1.79,1.89,0.4253,-0.8872,-0.2065,-53.032,-13.951,3.957,-30.82,-99.36,1.0485,0.1028,0.1118,0.843,4.646,-4.734,-83.79,-2.81,-12.21,-22.89,-10.68
9099,208.72,405.35,653.55,0.0479,0.0449,1.1919,0.010,-0.114,-0.228,-1.80,1.90,0.4246,-0.8767,-0.1956,-32.879,-7.325,3.759,-30.89,-100.22,1.0198,0.0886,0.1332,-1.005,-3.843,7.113,-83.83,-2.11,-12.66,-22.87,-10.21
9114,337.66,733.33,848.57,0.0532,0.0427,1.1982,-0.021,0.039,-0.197,-1.81,1.90,0.4229,-0.8816,-0.2996,-21.581,-2.119,2.400,-30.79,-100.70,1.0426,0.0298,0.0983,-1.615,-8.942,11.663,-83.97,-1.75,-13.06,-22.85,-9.79
9138,2582.78,2133.11,2049.30,0.0544,0.0408,1.1958,-0.005,-0.175,-0.136,-1.83,1.90,0.4185,-0.9124,-0.3127,-19.291,-5.966,1.041,-30.79,-101.33,1.0089,-0.0409,0.0239,-0.882,-10.163,9.434,-84.28,-2.93,-13.43,-22.85,-9.42
9153,1370.77,1170.11,1302.27,0.0530,0.0400,1.2004,-0.021,0.039,-0.167,-1.85,1.90,0.4238,-0.9155,-0.2808,-12.864,-4.332,-3.661,-30.71,-101.63,1.0042,-0.0728,-0.0187,-1.371,-4.652,4.029,-84.38,-4.98,-13.78,-22.86,-9.09
9178,1303.08,1664.91,1559.34,0.0559,0.0388,1.2026,-0.036,-0.007,-0.121,-1.86,1.90,0.4153,-0.9187,-0.2610,25.671,10.309,-3.753,-30.31,-101.09,1.0125,-0.0488,-0.0138,1.240,5.715,-6.063,-84.29,-6.97,-14.06,-22.87,-8.80
9192,2540.88,2571.50,2245.93,0.0518,0.0386,1.2002,0.102,-0.083,-0.167,-1.88,1.90,0.4177,-0.8943,-0.2371,46.526,15.897,-2.256,-29.97,-100.50,1.0105,-0.0118,0.0371,1.515,10.646,-10.307,-84.21,-7.16,-14.31,-22.86,-8.55
9217,440.00,465.79,730.11,0.0547,0.0427,1.2021,-0.097,-0.602,-0.655,-1.91,1.90,0.4553,-0.9351,-0.3171,85.075,34.416,-9.722,-29.03,-98.60,1.0350,0.0515,0.1147,0.629,8.157,-8.673,-83.99,-6.52,-14.47,-22.84,-8.37
9232,185.35,434.36,669.67,0.0537,0.0535,1.1985,0.086,-0.236,0.124,-1.92,1.91,0.4421,-0.9377,-0.2437,84.709,26.782,-8.806,-28.56,-97.51,1.0311,0.0906,0.1404,0.400,2.600,-4.230,-83.89,-5.72,-14.58,-22.81,-8.23
9257,3300.00,2746.37,2426.45,0.0535,0.0500,1.1960,0.056,0.131,0.169,-1.93,1.93,0.3364,-0.8279,0.0464,137.182,36.950,-8.791,-27.53,-93.95,1.0449,0.0818,0.1027,-1.310,-6.087,5.663,-84.01,-4.87,-14.61,-22.79,-8.18
9271,2332.16,1958.24,1910.70,0.0544,0.0461,1.1980,-0.021,-0.190,-0.289,-1.95,1.93,0.3245,-0.7871,0.0657,220.892,60.004,-6.836,-26.56,-90.60,1.0210,0.0486,0.0680,-1.783,-8.575,10.991,-84.16,-4.09,-14.57,-22.79,-8.21
9296,557.66,963.81,1029.08,0.0566,0.0549,1.1863,0.040,1.367,1.223,-1.93,1.95,0.4644,-0.9688,-0.1851,336.877,116.187,-2.928,-23.70,-82.59,1.0056,-0.0413,0.0225,-0.440,-4.881,9.144,-84.35,-5.25,-14.34,-22.79,-8.45
9311,1591.58,1891.36,1730.99,0.0547,0.0466,1.2017,-0.036,0.115,0.062,-1.94,1.95,0.5374,-1.0552,-0.2461,306.297,109.423,-2.852,-22.19,-78.62,0.9974,-0.0703,0.0177,-0.150,-1.675,4.014,-84.40,-6.66,-14.01,-22.80,-8.79
9336,1110.48,963.00,1127.40,0.0442,0.0415,1.1938,-0.112,0.726,-1.953,-1.93,1.95,0.4807,-0.9666,0.0046,202.571,85.332,-16.485,-20.18,-73.89,0.9946,-0.0455,0.0298,0.995,3.837,-6.811,-84.36,-7.64,-13.57,-22.81,-9.24
9350,390.84,411.79,718.02,0.0410,0.0483,1.1963,0.300,-0.068,1.604,-1.93,1.96,0.4253,-0.9026,0.2014,166.113,87.759,-21.096,-19.02,-71.58,1.0221,0.0013,0.0464,0.217,5.761,-9.757,-84.33,-7.45,-13.08,-22.81,-9.73
9375,2836.63,2780.22,2384.54,0.0713,0.0210,1.2004,-0.387,1.138,0.826,-1.93,1.93,0.3552,-0.7288,0.4783,171.884,88.431,-20.363,-16.91,-67.06,1.0372,0.0752,0.0820,0.980,4.432,-5.925,-84.22,-6.43,-12.47,-22.81,-10.34
9390,3300.00,2846.30,2487.69,0.0510,0.0247,1.2068,-0.158,-0.068,-0.151,-1.94,1.91,0.4238,-0.7808,0.4470,197.335,110.584,-24.898,-15.50,-64.11,1.0414,0.0835,0.0913,0.446,1.822,-0.719,-84.17,-5.44,-11.81,-22.80,-10.99
9415,141.83,424.69,642.27,0.0454,0.0408,1.2041,-0.250,1.520,1.375,-1.91,1.91,0.4419,-0.8521,0.3589,180.465,116.171,-21.233,-12.89,-59.80,1.0372,0.0504,0.0889,-0.608,-4.423,7.922,-84.28,-4.76,-11.01,-22.80,-11.79
9429,597.14,1021.03,1083.08,0.0425,0.0483,1.2083,-0.234,-0.144,-0.518,-1.91,1.91,0.4443,-0.8210,0.3982,150.953,106.828,-24.775,-11.62,-57.73,1.0187,0.0083,0.0645,-1.264,-6.239,9.189,-84.41,-4.53,-10.18,-22.82,-12.63
9454,2016.26,1691.50,1743.08,0.0581,0.0439,1.1995,-0.051,-0.526,-0.167,-1.94,1.92,0.3752,-0.7146,0.6335,108.327,87.515,-25.493,-9.69,-54.91,1.0060,-0.0504,0.0228,-0.867,-4.239,5.312,-84.56,-5.78,-9.27,-22.84,-13.56
9469,876.78,722.86,958.97,0.0532,0.0461,1.2039,-0.051,-0.037,0.704,-1.96,1.92,0.3608,-0.6577,0.7849,104.923,78.309,-24.989,-8.77,-53.12,0.9968,-0.0559,0.0148,-0.348,-0.056,-0.230,-84.61,-7.17,-8.36,-22.86,-14.49
9493,2012.23,2258.83,2013.85,0.0557,0.0571,1.1943,-0.158,1.367,1.070,-1.94,1.93,0.2952,-0.5562,0.7751,114.709,68.294,-23.340,-7.28,-49.98,1.0153,-0.0192,0.0430,1.224,6.921,-7.482,-84.49,-7.48,-7.41,-22.87,-15.45
9508,3300.00,3154.95,2604.54,0.0447,0.0508,1.1982,-0.051,-1.152,-0.976,-1.96,1.94,0.3020,-0.5513,0.6836,118.663,80.156,-22.256,-6.37,-48.07,1.0145,0.0183,0.0729,1.362,7.990,-8.124,-84.40,-7.03,-6.46,-22.87,-16.41
9533,186.15,286.08,539.93,0.0383,0.0500,1.1978,-0.753,0.818,-1.647,-1.93,1.93,0.3081,-0.5664,0.6733,88.633,72.675,-11.737,-4.87,-45.76,1.0336,0.0708,0.1277,0.431,3.974,-3.940,-84.26,-6.30,-5.48,-22.87,-17.39
9547,236.12,568.13,710.77,0.0889,0.0291,1.1968,-0.494,-1.717,-2.228,-2.00,1.92,0.2520,-0.5303,0.7661,56.220,53.744,-10.760,-4.31,-44.74,1.0366,0.0737,0.1207,-0.150,-1.873,1.296,-84.25,-5.54,-4.52,-22.85,-18.34
9572,2747.18,2339.41,2219.34,0.0637,0.0413,1.1929,-0.112,-0.511,-1.052,-2.04,1.91,0.2256,-0.5107,0.8152,60.129,47.652,-5.340,-3.33,-43.03,1.0254,0.0420,0.0811,-1.478,-8.041,7.846,-84.45,-4.92,-3.55,-22.86,-19.30
9586,1459.41,1207.18,1339.34,0.0378,0.0374,1.1873,-0.112,0.619,-0.548,-2.03,1.91,0.2715,-0.5322,0.8372,78.678,62.523,-2.699,-2.68,-41.70,1.0201,0.0032,0.0376,-1.585,-8.285,8.747,-84.64,-4.75,-2.61,-22.87,-20.26
9611,1311.14,1684.25,1572.23,0.0576,0.0278,1.2090,0.773,-0.816,-0.350,-2.06,1.92,0.2234,-0.5903,0.5115,-48.482,63.546,36.843,-1.40,-43.02,1.0034,-0.0498,-0.0046,-0.577,-2.636,4.029,-84.75,-6.57,-1.64,-22.89,-21.25
9626,2410.33,2617.44,2325.71,0.0671,0.0288,1.1716,1.644,0.604,1.727,-2.07,1.93,0.1396,-0.5464,0.8181,99.671,85.729,-16.898,-0.30,-41.40,1.0105,-0.0570,-0.0018,0.583,1.959,-1.314,-84.77,-8.27,-0.67,-22.91,-22.25
9651,495.60,404.54,631.79,0.0723,0.0349,1.2065,1.827,-0.022,2.215,-2.10,1.97,0.1895,-0.5378,0.8284,108.907,108.065,-6.043,2.12,-38.58,1.0149,-0.0062,0.0425,1.637,6.432,-7.818,-84.67,-8.23,0.41,-22.92,-23.34
9665,198.24,301.39,502.86,0.0344,0.0293,1.1924,3.506,1.627,0.582,-2.07,2.01,0.2158,-0.5359,0.8328,102.785,95.897,-9.203,3.20,-37.00,1.0216,0.0343,0.0703,0.797,6.509,-8.032,-84.59,-7.54,1.49,-22.93,-24.42
9680,333.63,637.44,751.87,0.0610,0.0627,1.1873,4.789,-0.892,0.704,-2.10,2.10,0.1965,-0.5229,0.8928,88.953,88.706,-16.791,4.20,-35.58,1.0319,0.0667,0.0924,0.369,4.173,-4.887,-84.51,-6.66,2.57,-22.92,-25.49
9705,2602.93,2266.89,2183.88,0.0669,0.0200,1.2122,-9.990,2.894,2.566,-2.05,1.83,0.1235,-0.4009,0.9414,63.991,79.057,-15.417,5.92,-33.76,1.0317,0.0686,0.1074,-0.485,-1.537,3.495,-84.52,-5.89,3.69,-22.92,-26.61
9720,1367.55,1116.12,1237.00,0.0652,0.0557,1.2109,6.850,-3.091,-5.266,-2.12,1.94,0.0317,-0.3081,0.9480,56.968,64.217,-17.982,6.68,-32.63,1.0309,0.0220,0.0961,-5.982,-5.018,9.250,-84.59,-5.60,4.78,-22.93,-27.71
9745,1307.11,1710.04,1583.52,0.0969,0.0398,1.2024,-0.387,2.314,-4.777,-2.11,1.93,0.0085,-0.3318,0.8877,79.472,107.576,-18.577,9.16,-30.45,1.0634,-0.0861,0.0488,-31.142,-1.995,20.823,-84.64,-7.46,5.97,-22.93,-28.91
9759,2536.04,2816.48,2490.92,0.1335,0.0681,1.1462,3.201,0.879,3.635,-2.19,2.01,0.0662,-0.3982,0.9585,70.724,104.813,-17.249,10.40,-29.29,0.9021,-0.1169,-0.0006,-11.035,-7.003,6.166,-84.70,-9.27,7.18,-22.93,-30.11
9784,460.95,311.06,529.45,-0.0464,0.0247,1.1663,15.277,-3.763,6.276,-2.19,2.36,0.0676,-0.3850,1.1108,32.083,58.629,-26.699,11.55,-28.30,0.9471,-0.0587,0.0277,-8.623,7.043,-13.192,-84.56,-10.59,8.37,-22.93,-31.30
9798,196.63,275.60,446.45,0.0522,0.0076,1.2371,-14.463,3.291,1.085,-2.15,2.12,0.0286,-0.3130,1.0811,31.961,52.523,-25.585,12.04,-27.60,1.0043,-0.0239,0.0438,-5.707,6.554,-21.849,-84.52,-11.03,9.52,-22.92,-32.44
9823,3300.00,3055.82,2727.03,0.0586,0.0330,1.2097,-3.150,-0.740,1.543,-2.18,2.03,-0.0332,-0.2688,0.8740,33.381,47.057,-23.218,12.98,-26.58,1.0503,0.1541,0.0656,-12.867,11.486,-14.414,-84.17,-9.79,10.65,-22.89,-33.54
9838,2262.05,1959.05,1972.75,0.0127,0.0552,1.2144,14.865,-4.343,-1.357,-2.21,2.25,-0.0618,-0.2224,0.9900,23.457,41.118,-21.081,13.38,-25.97,1.0620,0.1357,0.1096,6.354,3.959,-8.673,-84.04,-8.48,11.74,-22.85,-34.58
9863,608.42,967.03,993.63,0.0771,0.0676,1.1709,4.666,-2.282,-2.426,-2.29,2.39,-0.0015,-0.2993,1.0032,17.350,29.561,-14.211,13.83,-25.36,0.9694,0.1233,0.1296,-15.982,-0.926,9.907,-83.97,-7.83,12.78,-22.80,-35.58
9877,1704.40,2092.01,1944.54,0.0466,-0.0073,1.2554,-4.860,-2.587,-0.625,-2.33,2.26,-0.0325,-0.2981,0.9932,4.404,16.797,-15.233,13.83,-25.12,1.0564,0.0751,0.1174,0.324,-9.888,10.289,-84.08,-7.01,13.76,-22.76,-36.52
9902,969.45,687.40,874.36,0.0417,0.0623,1.1926,4.804,-1.060,2.322,-2.35,2.39,-0.0437,-0.2402,1.0305,-16.787,-11.874,-7.249,13.31,-25.29,0.9746,-0.0228,0.0187,-2.485,-11.308,13.174,-84.44,-7.95,14.63,-22.75,-37.37
9917,292.53,206.30,385.20,0.0393,0.0342,1.2024,-5.486,-1.259,0.872,-2.35,2.30,-0.0557,-0.2522,0.9895,-14.451,-12.256,-2.913,12.93,-25.28,1.0565,-0.0537,0.0120,-0.348,-6.621,8.548,-84.59,-9.34,15.41,-22.74,-38.16
9941,3215.38,3300.00,2913.19,0.0513,0.0349,1.2053,-0.418,0.192,-0.014,-2.35,2.28,-0.0142,-0.3333,0.8735,-27.551,-1.630,4.553,12.65,-25.86,1.0309,-0.0906,0.0087,2.140,4.707,-4.292,-84.48,-10.79,16.12,-22.73,-38.86
9956,3114.65,2808.43,2590.84,0.0474,0.0405,1.1951,0.040,0.848,-0.533,-2.34,2.27,0.0076,-0.3369,0.9861,-46.803,-20.882,7.240,12.09,-26.39,0.9750,-0.0397,0.0555,0.873,8.570,-7.192,-84.39,-11.28,16.74,-22.72,-39.46
9981,206.30,361.83,485.93,0.0522,0.0491,1.1912,-0.311,-0.602,-0.457,-2.36,2.27,0.0881,-0.3933,0.9807,-105.459,-63.187,4.247,10.21,-28.88,1.0312,0.0425,0.0964,2.263,6.249,-11.757,-84.23,-10.52,17.19,-22.69,-39.88
9996,734.14,1121.76,1111.28,0.0574,0.0513,1.1924,0.208,-1.396,-1.464,-2.38,2.27,0.0569,-0.3887,0.9822,-152.864,-87.141,7.438,8.69,-30.93,1.0364,0.0765,0.1082,-2.959,4.249,-7.085,-84.14,-9.65,17.50,-22.66,-40.16
10020,1809.16,1521.47,1552.09,0.0601,0.0569,1.1768,-2.219,-1.946,-0.365,-2.44,2.23,-0.0129,-0.3250,0.9238,-213.642,-129.676,17.606,5.38,-35.89,1.0527,0.0962,0.1122,-1.783,-2.377,4.395,-84.16,-8.68,17.56,-22.63,-40.19
10035,796.19,531.06,697.07,0.0581,0.0320,1.2288,-4.311,-2.389,-0.212,-2.48,2.15,-0.0088,-0.3767,0.9170,-216.513,-130.745,19.057,3.42,-38.70,1.0184,0.0663,0.0947,0.675,-6.056,7.876,-84.23,-7.80,17.48,-22.60,-40.08
10060,2092.82,2482.86,2274.95,0.0618,0.0374,1.1975,0.147,-0.633,0.948,-2.51,2.15,0.1790,-0.5916,0.8635,-147.993,-66.393,28.171,1.55,-42.21,0.9922,-0.0199,0.0438,-1.860,-6.453,9.525,-84.45,-8.18,17.28,-22.58,-39.87
10074,3142.86,3300.00,3022.78,0.0398,0.0359,1.2004,0.147,-1.076,2.475,-2.51,2.14,0.2898,-0.7246,0.7581,-112.421,-38.989,22.141,0.64,-43.87,1.0267,-0.0555,0.0251,0.125,-5.644,6.579,-84.57,-9.33,17.03,-22.58,-39.61
10099,310.26,178.90,323.96,0.0439,0.0435,1.2058,-0.112,-0.938,-1.357,-2.52,2.14,0.2661,-0.7761,0.6860,-141.749,-52.317,11.179,-0.94,-47.43,1.0128,-0.0541,0.0238,0.766,1.806,-3.589,-84.57,-10.45,16.69,-22.58,-39.27
10114,301.39,464.98,519.78,0.0525,0.0427,1.1953,0.025,-1.366,1.498,-2.54,2.14,0.1650,-0.6746,0.7529,-169.505,-70.012,1.301,-2.10,-49.73,1.0070,-0.0248,0.0328,0.476,5.837,-7.208,-84.55,-10.97,16.29,-22.57,-38.86
10139,2743.96,2532.82,2427.25,0.0425,0.0339,1.2419,-0.158,-1.396,-2.304,-2.57,2.12,0.0823,-0.5872,0.9553,-133.871,-18.561,15.133,-2.60,-52.63,1.0217,0.0475,0.0900,1.652,7.119,-7.574,-84.37,-10.15,15.89,-22.55,-38.44
10153,1607.69,1320.81,1403.00,0.0457,0.0461,1.1782,-0.021,0.176,0.414,-2.56,2.12,0.1086,-0.6079,0.6775,-64.711,-14.409,19.576,-2.89,-53.34,1.0405,0.0682,0.1079,-0.012,5.012,-4.643,-84.27,-9.31,15.49,-22.52,-38.01
10178,1041.98,1422.34,1378.02,0.0535,0.0488,1.2024,0.056,-0.175,-0.273,-2.56,2.13,0.1738,-0.6177,0.5125,21.304,0.736,11.805,-3.06,-52.76,1.0375,0.0690,0.1057,-1.783,-4.407,4.624,-84.35,-8.50,15.11,-22.50,-37.61
10193,2137.95,2510.26,2337.80,0.0527,0.0459,1.1897,0.040,0.329,0.078,-2.56,2.13,0.0793,-0.6531,0.5337,33.320,8.782,20.415,-2.98,-52.24,1.0242,0.0427,0.0868,-0.867,-7.552,7.220,-84.47,-7.82,14.76,-22.50,-37.26
10218,708.35,447.25,581.83,0.0540,0.0354,1.2000,-0.005,-0.389,-0.197,-2.56,2.12,0.0728,-0.7324,0.6428,41.457,43.546,28.522,-1.94,-51.16,1.0131,-0.0139,0.0325,-0.669,-6.652,7.647,-84.70,-8.14,14.51,-22.50,-37.01
10232,301.39,211.14,332.82,0.0742,-0.0334,1.2112,0.300,-6.205,9.788,-2.67,2.05,0.2373,-0.6975,0.5730,30.724,40.156,40.553,-1.63,-50.71,1.0107,-0.0337,0.0116,-0.363,-2.377,4.991,-84.80,-9.41,14.31,-22.51,-36.82
10257,3179.93,3228.28,2964.76,0.0364,-0.0894,1.3474,-37.746,-1.518,24.948,-2.69,1.01,0.2891,-0.7322,0.7151,100.892,4.431,-23.340,-1.80,-48.14,1.0107,-0.0453,0.0308,1.148,4.463,-2.337,-84.73,-10.31,14.11,-22.51,-36.62
10272,2618.24,2351.50,2300.73,-0.0208,-0.1543,1.1812,1.781,2.848,-3.999,-2.57,0.87,0.1685,-0.4988,0.8728,84.236,27.515,-3.905,-1.56,-46.57,1.0087,-0.0232,0.0533,0.522,6.371,-6.185,-84.68,-10.56,13.93,-22.52,-36.44
10297,411.79,670.48,688.21,0.0078,0.0762,1.1411,10.300,5.978,-34.319,-2.38,1.18,0.1096,-0.6174,0.7825,-10.803,-3.401,17.164,-1.74,-46.67,1.0253,0.0444,0.0952,-0.104,4.860,-7.589,-84.55,-9.85,13.74,-22.52,-36.26
10311,1216.85,1635.09,1560.15,-0.0339,0.1958,1.2600,-1.196,9.108,-55.922,-2.18,1.31,0.1914,-0.5344,0.9797,39.365,-21.508,-3.600,-2.21,-45.74,1.0341,0.0634,0.0959,1.163,0.509,-3.498,-84.53,-8.97,13.51,-22.54,-36.06
10336,1320.00,1042.78,1166.08,0.0784,0.1704,1.2107,-0.433,-13.030,-10.426,-2.52,1.44,0.1338,-0.0020,0.6624,70.312,6.171,53.469,-2.24,-43.12,1.0294,0.0679,0.0958,-1.463,-1.995,4.640,-84.55,-8.12,13.32,-22.54,-35.87
10351,536.70,397.29,548.79,0.0283,0.0581,1.2034,0.331,14.100,0.185,-2.30,1.47,0.0632,-0.4128,1.1235,44.052,-32.928,75.698,-2.72,-42.03,1.0345,0.0304,0.0907,-0.180,-3.980,8.228,-84.61,-7.59,13.10,-22.56,-35.66
10376,2525.57,2772.16,2515.90,0.0732,0.0662,1.2297,-0.891,-8.557,1.009,-2.53,1.48,-0.0786,-0.1033,0.4766,2.205,-90.546,69.774,-4.70,-41.38,1.0090,-0.0353,0.0553,-0.409,-4.621,6.289,-84.76,-8.10,12.77,-22.57,-35.34
10390,3161.39,2947.84,2695.60,0.0059,0.0039,1.2388,-0.906,-6.862,4.505,-2.58,1.44,-0.1587,-0.0298,0.3838,-10.207,-67.508,80.186,-5.12,-40.79,1.0043,-0.0463,0.0416,-0.745,-2.881,1.922,-84.84,-8.91,12.44,-22.58,-35.02
10415,278.83,394.07,526.23,0.0247,0.0352,1.1455,0.086,11.245,0.276,-2.28,1.45,0.0911,-0.1641,0.3965,106.968,-61.035,62.797,-6.74,-37.83,1.0146,-0.0266,0.0310,0.904,1.959,-4.887,-84.85,-9.52,11.99,-22.61,-34.60
10429,598.75,941.25,976.70,0.0906,0.0459,1.2346,-0.295,-9.976,-1.373,-2.46,1.46,-0.0002,-0.4480,0.5955,-4.375,-60.454,87.102,-7.46,-37.87,1.0173,0.0079,0.0410,0.507,4.722,-6.902,-84.83,-9.10,11.54,-22.63,-34.17
10454,2141.98,1845.42,1843.81,0.0156,0.0427,1.2126,0.544,7.382,-1.724,-2.25,1.48,0.2393,-1.4062,1.3020,-18.009,-98.256,76.232,-9.85,-38.50,1.0353,0.0431,0.0858,0.217,4.951,-4.017,-84.71,-8.38,10.94,-22.65,-33.59
10469,1199.12,996.04,1121.76,0.0330,0.0164,1.1943,-0.158,-4.480,-4.212,-2.30,1.47,0.3491,-1.6594,1.4197,-58.406,-93.859,94.370,-11.19,-39.56,1.0265,0.0590,0.1005,-0.180,1.776,-1.223,-84.66,-7.61,10.29,-22.66,-32.95
10494,1609.30,1908.28,1770.48,0.0483,0.0430,1.2104,0.086,0.863,-0.273,-2.28,1.48,0.1172,-0.8247,0.6726,31.640,-56.393,63.438,-12.47,-39.01,1.0287,0.0474,0.0867,-1.310,-4.652,4.212,-84.77,-6.92,9.60,-22.68,-32.28
10508,2631.14,2643.22,2378.10,0.0508,0.0503,1.1870,0.269,1.657,1.666,-2.26,1.50,0.1467,-0.5608,0.3401,14.846,-37.309,66.568,-13.00,-39.19,1.0211,0.0240,0.0599,-0.608,-6.285,6.426,-84.89,-6.35,8.91,-22.71,-31.62
10533,521.39,533.48,725.27,0.0520,0.0481,1.1936,0.071,0.100,-0.380,-2.26,1.52,0.2424,-1.0154,0.6792,-0.467,-41.401,35.713,-13.97,-39.54,1.0117,-0.0226,0.0247,-0.165,-2.056,4.976,-85.01,-7.08,8.21,-22.75,-30.95
10548,399.71,635.82,750.26,0.0503,0.0518,1.1995,0.132,0.100,-0.121,-2.26,1.54,0.1931,-0.7920,0.4741,-25.551,-30.790,21.194,-14.37,-40.30,1.0038,-0.0369,0.0272,0.202,1.699,1.861,-85.03,-8.00,7.52,-22.78,-30.31
10573,2710.92,2374.07,2256.41,0.0510,0.0435,1.1960,0.056,-1.045,-0.411,-2.29,1.55,0.2368,-0.7844,0.5173,17.350,3.836,6.125,-14.27,-40.20,1.0358,0.0542,0.0667,8.308,6.234,-6.429,-84.88,-6.86,6.90,-22.80,-29.70
10587,1830.11,1598.83,1623.81,0.0547,0.0474,1.1985,-0.127,0.482,1.696,-2.29,1.56,0.1689,-0.7166,0.7627,55.426,7.881,-14.470,-14.06,-39.47,1.0414,0.0898,0.1305,7.392,0.478,1.021,-84.81,-5.93,6.33,-22.82,-29.14
10612,974.29,1301.47,1274.87,0.0518,0.0251,1.1812,-0.891,0.711,1.314,-2.28,1.54,0.1318,-0.7166,0.7156,-21.703,20.599,-16.898,-13.42,-40.11,1.0807,0.0028,0.1411,-7.081,-1.354,12.670,-84.79,-5.96,5.84,-22.83,-28.67
10627,1849.45,2020.29,1887.33,0.0610,0.0459,1.1943,-0.173,0.222,-3.266,-2.29,1.55,0.2310,-0.7202,0.8047,4.342,5.378,-36.806,-13.32,-40.09,0.9668,-0.0288,0.1063,4.079,-15.995,10.548,-85.00,-6.08,5.40,-22.85,-28.25
10651,949.30,878.39,1018.61,0.0564,0.0300,1.1843,0.147,0.833,0.902,-2.27,1.55,0.1965,-0.7600,0.7925,9.258,24.431,-21.462,-12.66,-39.93,0.9844,-0.0503,-0.0073,-3.997,-9.278,5.052,-85.26,-8.02,5.03,-22.89,-27.93
10666,553.63,634.21,782.49,0.0603,0.0444,1.2168,-0.051,-2.266,-2.212,-2.32,1.56,0.1807,-0.6531,0.8140,23.472,25.759,-28.745,-12.23,-39.58,1.0123,-0.0588,-0.0602,0.980,-1.491,-2.551,-85.29,-10.56,4.73,-22.93,-27.66
10691,2720.59,2522.34,2329.74,0.0525,0.0400,1.1929,0.346,0.970,1.177,-2.30,1.57,0.1360,-0.7109,0.8682,-19.108,8.278,-27.661,-11.93,-40.04,0.9867,-0.0220,0.0233,4.446,12.478,-6.963,-85.04,-11.11,4.46,-22.95,-27.41
10706,2507.03,2205.64,2127.47,0.0518,0.0376,1.2046,-0.250,-1.182,-2.029,-2.32,1.58,0.1304,-0.5945,0.6938,-11.474,15.881,-26.669,-11.62,-40.21,1.0444,0.0038,0.1046,-0.501,13.058,-9.437,-84.84,-10.85,4.24,-22.95,-27.19
10731,493.99,763.15,856.63,0.0483,0.0444,1.1975,0.254,1.245,2.001,-2.29,1.59,0.1777,-0.5496,0.7358,8.800,23.927,-26.088,-11.02,-39.93,1.0043,0.0704,0.1558,-1.203,0.264,-6.765,-84.74,-10.18,4.07,-22.95,-27.02
10745,971.87,1302.27,1285.35,0.0559,0.0469,1.1963,-0.189,-0.892,-1.403,-2.31,1.60,0.1802,-0.6111,1.0159,1.136,13.607,-20.027,-10.78,-39.73,1.0664,0.0780,0.1106,-1.127,-7.736,0.655,-84.81,-9.29,3.93,-22.95,-26.88
10770,1722.93,1506.15,1563.37,0.0508,0.0381,1.2026,0.040,0.314,0.108,-2.30,1.61,0.1487,-0.5698,0.8059,-22.482,4.187,-5.218,-10.63,-40.19,1.0629,0.0592,0.0234,-1.692,-9.797,9.831,-85.08,-7.77,3.81,-22.97,-26.78
10785,941.25,885.64,1025.86,0.0476,0.0552,1.1907,0.025,0.146,0.383,-2.30,1.63,0.1797,-0.5701,0.8547,14.205,2.355,-12.394,-10.58,-39.86,1.0074,-0.0007,-0.0018,0.354,-3.278,12.197,-85.23,-10.78,3.70,-23.00,-26.71
10810,1959.85,2112.16,1958.24,0.0549,0.0479,1.2029,0.025,0.115,-0.121,-2.30,1.64,0.1377,-0.6257,0.7441,-22.986,-0.363,11.713,-10.54,-40.42,1.0072,-0.0967,0.0352,2.217,2.127,6.945,-85.15,-11.91,3.60,-23.03,-26.63
10824,2800.37,2587.62,2366.01,0.0549,0.0493,1.1973,-0.082,0.161,0.154,-2.31,1.66,0.1772,-0.6824,0.7109,-6.650,-3.218,-6.333,-10.58,-40.59,0.9781,-0.0920,0.0762,-0.714,4.890,-3.681,-85.04,-12.69,3.51,-23.04,-26.55
10849,447.25,564.91,705.13,0.0552,0.0483,1.2031,-0.036,-0.114,-0.075,-2.32,1.67,0.2068,-0.6152,0.8037,9.228,2.156,-1.753,-10.55,-40.30,1.0164,-0.0229,0.0613,-1.203,3.303,-12.704,-84.99,-12.87,3.43,-23.05,-26.47
10864,473.04,755.09,830.84,0.0537,0.0498,1.1960,0.010,-0.007,-0.121,-2.32,1.68,0.1777,-0.6340,0.7595,-2.909,7.973,6.278,-10.42,-40.33,1.0278,0.0675,0.0669,-0.195,2.234,-11.314,-84.95,-11.71,3.36,-23.05,-26.41
