timestamp_ms,EMG_Quad_mV,EMG_Ham_mV,EMG_Calf_mV,ACC_Quad_X_g,ACC_Quad_Y_g,ACC_Quad_Z_g,GYR_Quad_X_dps,GYR_Quad_Y_dps,GYR_Quad_Z_dps,Pitch_Quad_deg,Roll_Quad_deg,ACC_Ham_X_g,ACC_Ham_Y_g,ACC_Ham_Z_g,GYR_Ham_X_dps,GYR_Ham_Y_dps,GYR_Ham_Z_dps,Pitch_Ham_deg,Roll_Ham_deg,ACC_Calf_X_g,ACC_Calf_Y_g,ACC_Calf_Z_g,GYR_Calf_X_dps,GYR_Calf_Y_dps,GYR_Calf_Z_dps,Pitch_Calf_deg,Roll_Calf_deg,Angle_Quad_Ham_deg,Angle_Quad_Calf_deg,Angle_Ham_Calf_deg
4,1477.95,1465.86,1469.08,-0.4961,0.7739,0.4111,-7.739,0.825,-4.945,29.61,61.63,-0.2283,-0.9497,0.4246,2.085,-0.274,0.114,12.33,-65.77,0.1272,-1.0027,-0.1592,0.698,-0.348,0.134,-7.21,-98.04,0.00,0.00,0.00
18,1493.26,1432.01,1452.97,-0.4639,0.7258,0.3870,-2.533,-3.466,-7.037,29.56,61.60,-0.2148,-0.9150,0.4268,0.299,-0.290,1.274,12.32,-65.75,0.1248,-0.9529,-0.1382,3.125,-0.532,0.775,-7.22,-98.00,0.01,0.01,0.01
43,1464.25,1499.71,1483.59,-0.4910,0.7656,0.4199,4.078,-0.351,2.246,29.54,61.69,-0.2393,-0.9299,0.4175,3.612,-0.671,-2.405,12.32,-65.67,0.1362,-0.9998,-0.1497,-4.753,-2.043,1.034,-7.28,-98.12,0.01,0.01,0.00
57,1457.00,1501.32,1478.75,-0.5022,0.7827,0.4341,9.406,1.145,8.948,29.55,61.81,-0.2251,-0.9458,0.4478,1.291,0.092,-1.978,12.32,-65.63,0.1404,-1.0239,-0.1355,-0.127,0.751,-0.676,-7.28,-98.11,0.01,0.02,0.00
82,1493.26,1522.27,1475.53,-0.4858,0.7524,0.3945,2.368,-0.061,3.589,29.56,61.88,-0.2173,-0.9277,0.4038,-2.693,1.405,0.007,12.35,-65.71,0.1282,-0.9775,-0.1445,0.331,0.293,-0.141,-7.27,-98.11,0.02,0.02,0.00
96,1490.84,1544.84,1486.81,-0.4846,0.7561,0.3865,-6.685,0.275,-5.907,29.56,61.80,-0.2104,-0.9446,0.4253,1.078,0.458,-2.207,12.34,-65.70,0.1191,-0.9824,-0.1511,-0.875,0.262,-0.309,-7.26,-98.14,0.02,0.02,-0.00
121,1467.47,1458.61,1452.97,-0.4917,0.7595,0.4026,-6.609,-0.183,-5.281,29.56,61.65,-0.2314,-0.9204,0.3916,-3.457,-0.793,1.549,12.33,-65.81,0.1248,-0.9985,-0.1260,1.629,0.949,-0.294,-7.23,-98.08,0.03,0.03,0.00
135,1481.98,1458.61,1462.64,-0.4963,0.7712,0.4194,2.643,0.886,3.681,29.57,61.68,-0.2297,-0.9412,0.4236,6.543,-0.381,-1.810,12.33,-65.71,0.1257,-1.0085,-0.1421,-1.073,-0.684,0.134,-7.24,-98.09,0.03,0.03,0.00
159,1457.00,1513.41,1504.54,-0.4688,0.7419,0.3904,8.994,-0.626,8.383,29.55,61.91,-0.2324,-0.9165,0.4011,-1.915,-0.458,2.175,12.34,-65.77,0.1279,-0.9636,-0.1306,0.484,-0.135,0.103,-7.25,-98.07,0.03,0.03,0.00
174,1493.26,1469.89,1462.64,-0.4771,0.7549,0.3955,2.368,0.107,1.681,29.55,61.95,-0.2202,-0.9292,0.4158,2.207,0.229,-1.718,12.34,-65.74,0.1272,-0.9829,-0.1399,-1.608,-0.287,-0.004,-7.25,-98.10,0.03,0.04,0.00
198,1507.77,1519.85,1457.00,-0.4954,0.7668,0.4019,-7.815,-0.870,-8.075,29.53,61.77,-0.2185,-0.9285,0.4133,-2.480,0.306,0.938,12.34,-65.81,0.1260,-0.9976,-0.1448,-0.585,0.018,-0.095,-7.25,-98.11,0.04,0.04,0.00
213,1485.20,1528.72,1465.86,-0.4917,0.7632,0.4021,-10.013,-1.038,-9.357,29.52,61.64,-0.2224,-0.9270,0.4163,1.001,-0.519,0.129,12.33,-65.80,0.1282,-0.9912,-0.1406,1.400,0.217,-0.065,-7.25,-98.09,0.04,0.05,0.00
237,1496.48,1457.00,1452.97,-0.4858,0.7432,0.4058,-7.326,0.000,-6.518,29.53,61.46,-0.2209,-0.9299,0.4231,1.536,-0.992,0.785,12.31,-65.75,0.1311,-0.9778,-0.1367,0.209,0.171,-0.416,-7.25,-98.09,0.05,0.05,0.00
252,1481.17,1431.21,1456.19,-0.4890,0.7410,0.4124,-1.296,-0.061,-1.678,29.53,61.43,-0.2239,-0.9180,0.4209,-0.587,-0.168,0.282,12.31,-65.75,0.1296,-0.9785,-0.1436,0.713,0.140,0.103,-7.25,-98.08,0.05,0.05,0.00
276,1480.37,1512.60,1504.54,-0.4956,0.7573,0.4185,9.376,1.725,10.047,29.58,61.65,-0.2256,-0.9329,0.4241,-1.579,0.718,-0.726,12.33,-65.79,0.1270,-0.9958,-0.1394,-0.386,0.003,-0.050,-7.25,-98.09,0.05,0.05,0.00
291,1481.17,1457.00,1479.56,-0.4915,0.7590,0.4043,11.116,1.130,11.513,29.60,61.81,-0.2239,-0.9268,0.4189,-3.029,0.657,0.251,12.34,-65.83,0.1235,-0.9910,-0.1321,0.255,0.003,-0.095,-7.25,-98.08,0.05,0.05,0.00
315,1495.68,1479.56,1470.70,-0.4846,0.7615,0.3899,0.719,0.901,1.192,29.62,61.85,-0.2207,-0.9304,0.4133,0.849,0.000,-0.421,12.34,-65.81,0.1196,-0.9858,-0.1379,-0.142,0.094,-0.095,-7.24,-98.08,0.04,0.05,0.01
329,1473.11,1528.72,1490.84,-0.4866,0.7600,0.3933,-6.166,-0.443,-6.014,29.61,61.78,-0.2183,-0.9329,0.4202,1.139,-0.458,-0.069,12.32,-65.79,0.1218,-0.9917,-0.1440,-0.447,-0.012,-0.080,-7.23,-98.09,0.04,0.05,0.01
354,1506.15,1452.97,1464.25,-0.4910,0.7563,0.4097,-7.754,-1.695,-7.556,29.58,61.59,-0.2244,-0.9331,0.4192,0.284,-0.122,0.175,12.32,-65.79,0.1218,-0.9902,-0.1338,0.759,0.171,-0.004,-7.22,-98.06,0.04,0.05,0.01
368,1486.81,1469.08,1443.30,-0.4829,0.7490,0.4070,-3.830,-0.397,-4.319,29.57,61.54,-0.2239,-0.9255,0.4180,0.223,0.016,0.022,12.33,-65.78,0.1270,-0.9849,-0.1387,0.133,-0.104,-0.050,-7.22,-98.06,0.04,0.05,0.01
393,1467.47,1475.53,1474.73,-0.4851,0.7554,0.4072,2.216,0.428,2.490,29.58,61.59,-0.2253,-0.9275,0.4109,0.482,-0.351,0.037,12.32,-65.78,0.1304,-0.9890,-0.1387,-0.417,-0.028,0.103,-7.23,-98.07,0.04,0.05,0.01
407,1481.98,1481.17,1469.89,-0.4893,0.7549,0.3989,3.208,0.687,2.978,29.59,61.65,-0.2219,-0.9265,0.4209,2.055,-0.320,-0.283,12.32,-65.75,0.1304,-0.9905,-0.1384,-0.646,-0.089,0.027,-7.23,-98.07,0.04,0.05,0.01
431,1486.81,1536.78,1498.90,-0.4900,0.7568,0.4028,-0.624,-0.840,-0.304,29.58,61.64,-0.2229,-0.9270,0.4192,-0.266,0.138,0.129,12.32,-65.75,0.1284,-0.9893,-0.1458,0.011,-0.135,0.103,-7.24,-98.08,0.04,0.06,0.02
446,1461.83,1535.97,1504.54,-0.4846,0.7512,0.4070,-2.410,-0.488,-2.838,29.57,61.60,-0.2205,-0.9314,0.4241,-0.907,0.138,-0.146,12.32,-65.76,0.1248,-0.9846,-0.1421,0.087,0.033,-0.019,-7.24,-98.08,0.04,0.06,0.02
470,1468.28,1438.46,1445.71,-0.4895,0.7556,0.4045,-2.105,-0.473,-2.945,29.56,61.56,-0.2244,-0.9292,0.4180,-0.770,0.321,0.068,12.33,-65.78,0.1292,-0.9912,-0.1443,0.041,-0.104,0.072,-7.24,-98.08,0.04,0.06,0.02
484,1494.07,1475.53,1457.00,-0.4875,0.7573,0.4089,0.353,-0.229,0.230,29.56,61.56,-0.2224,-0.9280,0.4148,0.238,-0.106,-0.085,12.33,-65.78,0.1277,-0.9917,-0.1375,0.118,0.049,0.134,-7.24,-98.08,0.04,0.06,0.02
509,1491.65,1533.55,1509.38,-0.4910,0.7559,0.4050,4.597,0.504,5.284,29.57,61.68,-0.2229,-0.9255,0.4143,-0.831,0.306,-0.069,12.34,-65.80,0.1221,-0.9868,-0.1365,-0.249,-0.165,0.042,-7.24,-98.08,0.04,0.06,0.02
523,1490.84,1457.00,1470.70,-0.4883,0.7537,0.3994,4.765,0.321,4.413,29.58,61.75,-0.2249,-0.9329,0.4070,-1.274,0.413,-0.207,12.34,-65.83,0.1233,-0.9922,-0.1423,0.072,0.079,0.011,-7.23,-98.08,0.05,0.06,0.02
548,1485.20,1508.57,1473.11,-0.4846,0.7639,0.3989,0.017,-0.076,0.047,29.58,61.77,-0.2183,-0.9292,0.4128,-0.052,-0.061,0.068,12.34,-65.83,0.1235,-0.9863,-0.1396,-0.188,-0.104,0.057,-7.23,-98.08,0.05,0.06,0.02
562,1494.87,1534.36,1485.20,-0.4844,0.7661,0.4038,-3.586,-0.290,-3.037,29.56,61.73,-0.2249,-0.9307,0.4106,1.261,-0.320,0.053,12.34,-65.82,0.1250,-0.9905,-0.1411,0.102,0.018,-0.034,-7.23,-98.08,0.05,0.06,0.02
586,1499.71,1442.49,1459.41,-0.4861,0.7568,0.4062,-5.494,-0.687,-5.831,29.55,61.60,-0.2207,-0.9282,0.4202,1.383,-0.488,0.358,12.32,-65.79,0.1250,-0.9878,-0.1404,0.240,0.079,0.027,-7.23,-98.08,0.05,0.07,0.02
601,1483.59,1469.89,1457.00,-0.4893,0.7603,0.4146,-4.517,-0.473,-4.701,29.54,61.53,-0.2268,-0.9316,0.4202,0.375,-0.106,0.068,12.32,-65.78,0.1292,-0.9897,-0.1306,0.011,-0.028,-0.019,-7.23,-98.07,0.05,0.07,0.02
625,1470.70,1483.59,1468.28,-0.4927,0.7507,0.4041,-0.136,0.046,-0.396,29.55,61.53,-0.2214,-0.9270,0.4219,-0.220,0.092,0.160,12.33,-65.78,0.1267,-0.9858,-0.1384,0.240,0.110,0.042,-7.23,-98.06,0.05,0.07,0.02
640,1486.81,1473.11,1479.56,-0.4885,0.7517,0.4036,1.941,0.168,1.803,29.56,61.56,-0.2217,-0.9277,0.4197,-0.434,-0.045,0.007,12.32,-65.78,0.1272,-0.9871,-0.1357,0.041,0.155,0.042,-7.23,-98.05,0.05,0.07,0.02
664,1511.79,1527.11,1474.73,-0.4836,0.7554,0.4004,3.162,0.367,2.963,29.56,61.65,-0.2224,-0.9255,0.4221,0.284,0.138,-0.115,12.33,-65.77,0.1294,-0.9873,-0.1355,0.041,0.155,-0.126,-7.23,-98.05,0.05,0.07,0.02
678,1486.01,1521.47,1482.78,-0.4841,0.7542,0.4021,2.124,0.565,2.810,29.57,61.68,-0.2258,-0.9292,0.4221,-0.403,0.077,0.022,12.33,-65.77,0.1267,-0.9893,-0.1416,-0.096,0.003,-0.095,-7.23,-98.05,0.05,0.08,0.02
693,1485.20,1504.54,1519.05,-0.4844,0.7622,0.4016,1.284,0.061,1.772,29.57,61.71,-0.2205,-0.9324,0.4187,-0.449,0.061,-0.176,12.33,-65.78,0.1277,-0.9900,-0.1309,-0.066,-0.043,-0.004,-7.23,-98.04,0.05,0.08,0.02
717,1490.04,1482.78,1473.11,-0.4880,0.7578,0.4048,-1.952,-0.153,-2.060,29.56,61.67,-0.2205,-0.9287,0.4153,-0.755,0.107,0.160,12.33,-65.80,0.1284,-0.9910,-0.1396,0.041,0.018,-0.050,-7.23,-98.04,0.05,0.08,0.02
732,1498.10,1514.21,1494.87,-0.4878,0.7542,0.3987,-3.128,0.092,-3.357,29.57,61.63,-0.2239,-0.9319,0.4172,-0.373,0.184,0.022,12.33,-65.81,0.1265,-0.9854,-0.1399,0.011,-0.074,-0.004,-7.23,-98.04,0.05,0.08,0.02
756,1478.75,1473.11,1474.73,-0.4888,0.7527,0.4109,-1.616,0.031,-1.144,29.57,61.59,-0.2273,-0.9294,0.4163,0.268,-0.061,0.129,12.34,-65.80,0.1296,-0.9836,-0.1387,0.286,0.079,-0.004,-7.23,-98.03,0.05,0.08,0.02
770,1490.04,1445.71,1449.74,-0.4844,0.7524,0.3992,1.101,0.107,1.146,29.58,61.61,-0.2249,-0.9285,0.4143,0.177,-0.137,0.297,12.34,-65.80,0.1243,-0.9883,-0.1372,0.209,-0.089,-0.080,-7.23,-98.03,0.05,0.08,0.02
795,1487.62,1547.25,1509.38,-0.4844,0.7559,0.4055,2.582,0.428,2.459,29.58,61.68,-0.2246,-0.9263,0.4204,0.543,-0.091,-0.024,12.34,-65.79,0.1262,-0.9856,-0.1323,-0.142,0.018,-0.034,-7.23,-98.02,0.05,0.08,0.02
809,1469.08,1494.87,1483.59,-0.4873,0.7576,0.3999,1.223,0.504,1.940,29.59,61.71,-0.2222,-0.9299,0.4246,-0.159,-0.030,0.129,12.34,-65.78,0.1274,-0.9902,-0.1362,-0.157,-0.165,0.072,-7.23,-98.02,0.05,0.07,0.02
834,1494.07,1495.68,1440.88,-0.4868,0.7571,0.4077,-3.113,-0.137,-3.403,29.59,61.63,-0.2188,-0.9302,0.4241,0.238,0.107,-0.207,12.33,-65.77,0.1262,-0.9885,-0.1401,-0.127,-0.012,0.149,-7.23,-98.03,0.05,0.07,0.02
848,1508.57,1534.36,1495.68,-0.4858,0.7520,0.4036,-4.242,-0.946,-4.747,29.57,61.57,-0.2188,-0.9260,0.4146,-0.464,0.000,0.129,12.33,-65.78,0.1287,-0.9880,-0.1465,0.102,0.018,-0.065,-7.24,-98.03,0.05,0.07,0.02
872,1473.92,1444.91,1465.86,-0.4929,0.7532,0.4041,-2.105,-0.595,-2.777,29.57,61.53,-0.2219,-0.9280,0.4221,0.375,0.061,-0.176,12.33,-65.77,0.1284,-0.9937,-0.1411,-0.004,0.049,-0.004,-7.24,-98.03,0.05,0.07,0.02
887,1490.84,1512.60,1457.00,-0.4919,0.7529,0.4102,1.040,-0.229,0.749,29.57,61.54,-0.2251,-0.9277,0.4192,0.024,-0.122,0.221,12.33,-65.76,0.1313,-0.9888,-0.1404,0.133,-0.028,-0.111,-7.24,-98.03,0.05,0.07,0.02
911,1480.37,1520.66,1525.49,-0.4922,0.7568,0.4033,4.551,0.550,5.070,29.59,61.66,-0.2200,-0.9263,0.4163,0.207,0.046,-0.207,12.33,-65.76,0.1248,-0.9885,-0.1389,-0.081,-0.074,-0.050,-7.24,-98.03,0.05,0.07,0.02
925,1485.20,1475.53,1505.35,-0.4880,0.7539,0.4021,3.910,0.519,4.459,29.60,61.72,-0.2239,-0.9343,0.4192,0.131,0.016,-0.115,12.33,-65.76,0.1211,-0.9900,-0.1389,-0.111,-0.028,-0.004,-7.23,-98.04,0.05,0.07,0.02
950,1505.35,1489.23,1476.34,-0.4836,0.7578,0.4004,-0.685,0.092,-0.441,29.60,61.71,-0.2273,-0.9294,0.4175,-0.159,0.092,-0.054,12.34,-65.76,0.1228,-0.9868,-0.1421,-0.218,-0.028,0.149,-7.23,-98.04,0.05,0.07,0.02
964,1503.74,1538.39,1486.81,-0.4817,0.7588,0.4060,-3.830,-0.885,-3.831,29.58,61.66,-0.2227,-0.9348,0.4165,0.757,-0.015,-0.253,12.34,-65.76,0.1272,-0.9912,-0.1431,-0.142,-0.012,-0.050,-7.23,-98.05,0.05,0.07,0.02
989,1465.86,1449.74,1467.47,-0.4866,0.7539,0.4011,-4.823,-0.702,-4.884,29.56,61.55,-0.2236,-0.9290,0.4155,-0.113,-0.015,0.251,12.34,-65.76,0.1274,-0.9854,-0.1321,0.163,-0.074,-0.065,-7.23,-98.04,0.05,0.07,0.02
1003,1468.28,1425.57,1449.74,-0.4944,0.7539,0.4043,-2.639,-0.046,-3.174,29.57,61.52,-0.2207,-0.9341,0.4187,0.772,-0.076,-0.237,12.33,-65.75,0.1306,-0.9890,-0.1394,-0.004,-0.043,-0.141,-7.24,-98.04,0.05,0.07,0.02
1027,1490.84,1528.72,1481.17,-0.4856,0.7478,0.4045,1.254,0.122,1.681,29.58,61.55,-0.2256,-0.9265,0.4155,-0.464,-0.106,0.221,12.33,-65.77,0.1296,-0.9846,-0.1431,0.255,0.079,-0.019,-7.24,-98.04,0.05,0.07,0.02
1042,1475.53,1577.88,1480.37,-0.4863,0.7539,0.4016,2.796,0.641,2.826,29.59,61.60,-0.2239,-0.9299,0.4189,0.391,-0.061,-0.268,12.33,-65.76,0.1250,-0.9897,-0.1384,-0.142,-0.043,0.042,-7.24,-98.04,0.05,0.07,0.02
1066,1492.45,1484.40,1508.57,-0.4871,0.7583,0.4055,1.574,0.443,1.665,29.60,61.64,-0.2205,-0.9294,0.4189,-0.678,0.107,0.251,12.33,-65.78,0.1238,-0.9888,-0.1365,0.133,0.125,0.042,-7.23,-98.03,0.05,0.07,0.02
1080,1506.96,1525.49,1498.10,-0.4866,0.7607,0.4072,-0.013,-0.336,0.001,29.59,61.64,-0.2246,-0.9319,0.4170,-0.587,0.153,-0.008,12.34,-65.79,0.1270,-0.9858,-0.1375,-0.127,-0.012,0.072,-7.23,-98.03,0.05,0.07,0.02
1105,1473.11,1454.58,1481.17,-0.4868,0.7515,0.4104,-2.059,-0.198,-2.716,29.59,61.59,-0.2239,-0.9277,0.4265,-0.190,-0.015,0.175,12.34,-65.78,0.1262,-0.9858,-0.1394,0.316,0.094,-0.004,-7.23,-98.02,0.05,0.07,0.02
1119,1490.84,1483.59,1475.53,-0.4844,0.7498,0.4021,-1.616,-0.091,-2.228,29.59,61.57,-0.2246,-0.9243,0.4124,-0.266,-0.106,0.205,12.34,-65.79,0.1270,-0.9878,-0.1382,0.118,0.049,0.027,-7.23,-98.02,0.05,0.07,0.02
1144,1490.84,1515.82,1506.96,-0.4868,0.7529,0.4065,0.613,0.046,0.704,29.59,61.59,-0.2300,-0.9294,0.4221,0.329,-0.045,-0.268,12.35,-65.78,0.1223,-0.9915,-0.1387,-0.188,-0.028,-0.004,-7.23,-98.02,0.05,0.07,0.02
1158,1477.14,1486.81,1476.34,-0.4844,0.7566,0.3975,1.529,-0.091,1.116,29.59,61.62,-0.2227,-0.9265,0.4146,-0.632,-0.106,0.205,12.34,-65.79,0.1240,-0.9880,-0.1418,0.011,-0.104,-0.019,-7.23,-98.03,0.05,0.07,0.02
1182,1519.85,1493.26,1482.78,-0.4863,0.7566,0.4023,0.078,0.519,-0.625,29.60,61.63,-0.2188,-0.9307,0.4199,0.406,0.000,-0.115,12.34,-65.78,0.1262,-0.9905,-0.1448,-0.295,-0.058,0.011,-7.23,-98.04,0.05,0.06,0.02
1197,1490.84,1512.60,1493.26,-0.4863,0.7566,0.4006,-1.281,-0.351,-1.083,29.59,61.62,-0.2195,-0.9292,0.4167,0.161,-0.061,0.144,12.34,-65.78,0.1252,-0.9844,-0.1404,0.148,0.018,0.134,-7.22,-98.04,0.05,0.06,0.02
1221,1482.78,1457.00,1469.08,-0.4902,0.7576,0.4089,-2.105,0.122,-1.709,29.60,61.57,-0.2256,-0.9312,0.4199,0.971,-0.244,-0.146,12.33,-65.75,0.1299,-0.9885,-0.1418,-0.233,-0.089,-0.019,-7.23,-98.05,0.05,0.06,0.02
1235,1506.15,1456.19,1455.38,-0.4888,0.7561,0.4067,-0.960,-0.366,-1.037,29.59,61.56,-0.2207,-0.9338,0.4229,0.742,-0.045,-0.085,12.33,-65.74,0.1267,-0.9885,-0.1401,0.163,0.033,0.011,-7.23,-98.04,0.04,0.06,0.02
1260,1496.48,1531.94,1509.38,-0.4878,0.7537,0.4121,0.368,0.138,0.475,29.60,61.57,-0.2241,-0.9321,0.4106,-0.755,0.260,-0.131,12.34,-65.77,0.1262,-0.9851,-0.1372,-0.340,-0.074,0.011,-7.23,-98.05,0.04,0.06,0.02
1274,1477.14,1506.96,1462.64,-0.4900,0.7576,0.4050,1.025,0.382,1.039,29.60,61.59,-0.2214,-0.9299,0.4211,-0.113,0.229,-0.497,12.34,-65.77,0.1250,-0.9937,-0.1494,-0.111,0.140,-0.050,-7.23,-98.06,0.04,0.06,0.02
1299,1505.35,1520.66,1478.75,-0.4883,0.7583,0.3962,0.521,0.138,0.459,29.61,61.62,-0.2214,-0.9299,0.4160,-0.755,0.061,0.251,12.34,-65.79,0.1243,-0.9849,-0.1421,0.087,0.033,-0.004,-7.22,-98.06,0.04,0.06,0.02
1313,1493.26,1508.57,1485.20,-0.4900,0.7600,0.4021,0.200,0.504,0.108,29.62,61.63,-0.2239,-0.9338,0.4233,1.016,-0.091,-0.299,12.33,-65.77,0.1233,-0.9900,-0.1431,-0.188,-0.043,-0.034,-7.22,-98.07,0.04,0.06,0.02
1337,1469.08,1436.85,1469.08,-0.4824,0.7551,0.4028,-0.548,-0.458,-0.762,29.60,61.62,-0.2261,-0.9265,0.4199,-0.419,-0.198,0.587,12.33,-65.78,0.1260,-0.9854,-0.1372,0.270,0.125,0.027,-7.22,-98.06,0.04,0.06,0.02
1352,1500.51,1448.13,1482.78,-0.4871,0.7554,0.4099,-0.914,0.000,-0.976,29.60,61.61,-0.2239,-0.9314,0.4207,0.757,-0.076,-0.222,12.33,-65.76,0.1313,-0.9919,-0.1365,-0.249,-0.058,0.164,-7.22,-98.06,0.04,0.06,0.02
1376,1490.04,1495.68,1495.68,-0.4873,0.7559,0.4033,-0.838,-0.336,-1.144,29.59,61.59,-0.2224,-0.9292,0.4109,-0.770,-0.030,0.373,12.33,-65.79,0.1260,-0.9863,-0.1404,0.301,0.049,0.057,-7.22,-98.05,0.04,0.06,0.02
1390,1485.20,1481.98,1474.73,-0.4907,0.7571,0.4006,-1.097,-0.015,-1.419,29.60,61.59,-0.2258,-0.9277,0.4153,-0.083,-0.061,-0.024,12.34,-65.79,0.1284,-0.9868,-0.1362,-0.249,-0.119,0.027,-7.23,-98.05,0.04,0.06,0.02
1415,1507.77,1518.24,1459.41,-0.4861,0.7537,0.4077,-1.265,-0.458,-1.556,29.59,61.56,-0.2197,-0.9282,0.4167,-0.113,-0.106,0.114,12.33,-65.80,0.1260,-0.9905,-0.1465,0.148,-0.043,-0.050,-7.23,-98.05,0.04,0.06,0.02
1429,1477.95,1535.16,1502.93,-0.4910,0.7571,0.4060,-1.433,-0.611,-0.732,29.58,61.54,-0.2239,-0.9272,0.4226,-0.297,-0.015,0.251,12.33,-65.79,0.1252,-0.9900,-0.1399,0.118,0.094,-0.019,-7.22,-98.05,0.04,0.06,0.02
1454,1497.29,1444.91,1442.49,-0.4895,0.7556,0.4001,1.498,0.305,1.253,29.59,61.59,-0.2219,-0.9297,0.4172,-0.052,-0.045,-0.024,12.33,-65.80,0.1260,-0.9834,-0.1409,0.026,-0.028,-0.004,-7.22,-98.05,0.04,0.06,0.02
1468,1508.57,1482.78,1468.28,-0.4858,0.7544,0.4089,1.742,0.657,2.108,29.60,61.61,-0.2222,-0.9302,0.4165,-0.831,0.092,0.297,12.33,-65.81,0.1267,-0.9832,-0.1389,0.179,0.049,-0.034,-7.22,-98.05,0.04,0.06,0.03
1492,1482.78,1508.57,1504.54,-0.4863,0.7561,0.4019,1.345,0.076,0.994,29.60,61.65,-0.2212,-0.9304,0.4182,0.314,0.168,-0.069,12.33,-65.80,0.1233,-0.9897,-0.1399,-0.066,-0.028,0.011,-7.22,-98.05,0.03,0.06,0.03
1507,1472.31,1486.01,1474.73,-0.4819,0.7561,0.3975,-0.273,-0.397,0.062,29.59,61.66,-0.2200,-0.9292,0.4143,-0.449,-0.030,0.266,12.33,-65.81,0.1287,-0.9893,-0.1357,0.011,0.033,0.042,-7.22,-98.05,0.03,0.06,0.03
1531,1495.68,1534.36,1473.11,-0.4858,0.7615,0.3970,-2.624,-0.290,-2.090,29.58,61.61,-0.2239,-0.9321,0.4158,0.589,0.107,-0.253,12.33,-65.80,0.1267,-0.9873,-0.1418,-0.081,-0.135,0.011,-7.23,-98.05,0.03,0.06,0.03
1545,1494.87,1526.30,1474.73,-0.4861,0.7568,0.4021,-2.136,-0.382,-3.022,29.58,61.59,-0.2200,-0.9253,0.4097,-0.022,-0.076,0.144,12.33,-65.81,0.1289,-0.9915,-0.1357,0.301,-0.012,-0.034,-7.23,-98.04,0.04,0.06,0.03
1570,1507.77,1445.71,1460.22,-0.4897,0.7593,0.4109,-1.204,0.092,-1.174,29.58,61.56,-0.2241,-0.9329,0.4141,0.574,-0.015,-0.192,12.33,-65.80,0.1299,-0.9900,-0.1450,-0.096,-0.012,-0.019,-7.23,-98.05,0.04,0.06,0.03
1584,1499.71,1485.20,1451.36,-0.4917,0.7539,0.4070,0.246,0.015,0.017,29.59,61.57,-0.2241,-0.9314,0.4170,0.513,0.061,-0.039,12.33,-65.79,0.1265,-0.9834,-0.1406,0.087,0.064,0.011,-7.23,-98.05,0.04,0.06,0.03
1608,1481.98,1463.44,1474.73,-0.4844,0.7515,0.4006,1.040,0.244,1.223,29.59,61.60,-0.2249,-0.9336,0.4124,-0.266,0.046,-0.115,12.34,-65.81,0.1270,-0.9893,-0.1396,-0.188,-0.012,0.057,-7.23,-98.06,0.04,0.06,0.03
1623,1473.11,1452.97,1470.70,-0.4893,0.7542,0.4009,0.857,0.000,0.139,29.60,61.62,-0.2207,-0.9297,0.4180,0.223,0.046,-0.100,12.33,-65.80,0.1257,-0.9910,-0.1445,-0.249,0.018,0.011,-7.23,-98.06,0.04,0.06,0.02
1647,1493.26,1508.57,1478.75,-0.4824,0.7576,0.4038,-1.189,-0.153,-0.838,29.59,61.60,-0.2222,-0.9302,0.4121,-0.403,-0.030,0.221,12.33,-65.82,0.1274,-0.9868,-0.1360,0.026,0.033,-0.019,-7.23,-98.06,0.04,0.06,0.02
1662,1473.92,1496.48,1496.48,-0.4873,0.7546,0.4102,-1.830,-0.259,-2.060,29.58,61.57,-0.2256,-0.9309,0.4180,0.711,-0.091,-0.314,12.33,-65.81,0.1267,-0.9900,-0.1479,-0.142,-0.012,-0.126,-7.23,-98.07,0.04,0.06,0.02
1686,1494.07,1439.27,1453.77,-0.4858,0.7515,0.3989,-0.655,-0.840,-1.510,29.57,61.56,-0.2229,-0.9260,0.4231,-0.571,-0.015,0.450,12.33,-65.82,0.1272,-0.9900,-0.1436,0.286,0.094,-0.080,-7.23,-98.07,0.04,0.06,0.02
1700,1477.95,1458.61,1457.80,-0.4927,0.7581,0.4016,-0.120,0.305,-0.426,29.58,61.57,-0.2224,-0.9309,0.4153,0.223,-0.015,-0.024,12.33,-65.82,0.1304,-0.9851,-0.1394,-0.172,0.033,0.057,-7.23,-98.07,0.04,0.06,0.02
1725,1486.01,1516.63,1486.81,-0.4863,0.7605,0.4009,1.880,0.321,1.192,29.58,61.63,-0.2253,-0.9263,0.4219,-0.648,0.123,0.327,12.34,-65.83,0.1248,-0.9851,-0.1345,0.209,-0.012,-0.065,-7.23,-98.06,0.04,0.06,0.02
1739,1480.37,1470.70,1485.20,-0.4868,0.7522,0.4004,0.322,0.183,0.490,29.59,61.64,-0.2222,-0.9248,0.4141,-0.510,0.016,0.083,12.34,-65.83,0.1262,-0.9863,-0.1394,0.011,0.003,0.027,-7.23,-98.06,0.04,0.06,0.02
1764,1504.54,1537.58,1485.20,-0.4883,0.7551,0.4036,-0.716,0.031,-0.350,29.59,61.63,-0.2197,-0.9314,0.4214,-0.022,-0.015,-0.039,12.34,-65.83,0.1230,-0.9917,-0.1350,0.057,-0.043,0.042,-7.23,-98.05,0.04,0.06,0.02
1778,1477.95,1523.88,1510.18,-0.4868,0.7539,0.4050,-1.418,0.260,-1.648,29.60,61.61,-0.2229,-0.9255,0.4092,-0.587,0.031,0.221,12.34,-65.84,0.1240,-0.9902,-0.1450,0.163,-0.012,-0.019,-7.23,-98.05,0.04,0.06,0.02
1802,1490.04,1481.17,1485.20,-0.4871,0.7588,0.4026,-1.678,-0.229,-1.693,29.59,61.58,-0.2180,-0.9297,0.4167,0.711,-0.091,-0.146,12.33,-65.83,0.1299,-0.9900,-0.1462,-0.004,0.003,-0.111,-7.23,-98.06,0.04,0.06,0.02
1817,1502.93,1499.71,1475.53,-0.4854,0.7539,0.4043,-1.158,-0.229,-1.174,29.59,61.57,-0.2217,-0.9299,0.4177,-0.235,-0.122,0.343,12.33,-65.83,0.1277,-0.9851,-0.1375,0.301,-0.012,0.057,-7.23,-98.05,0.04,0.06,0.02
1841,1482.78,1470.70,1472.31,-0.4866,0.7554,0.4026,0.643,0.183,0.307,29.59,61.59,-0.2207,-0.9309,0.4155,0.818,-0.122,-0.329,12.32,-65.81,0.1267,-0.9910,-0.1431,-0.157,0.079,-0.111,-7.23,-98.06,0.04,0.06,0.02
1855,1486.81,1452.97,1477.14,-0.4856,0.7556,0.4028,1.055,-0.015,0.322,29.59,61.61,-0.2241,-0.9285,0.4177,-0.297,0.046,0.114,12.33,-65.82,0.1287,-0.9856,-0.1440,-0.004,-0.012,0.042,-7.23,-98.07,0.04,0.06,0.02
1880,1497.29,1508.57,1488.42,-0.4858,0.7549,0.4023,-0.349,0.305,0.307,29.60,61.61,-0.2241,-0.9297,0.4224,0.009,-0.030,-0.207,12.33,-65.81,0.1272,-0.9871,-0.1411,-0.249,0.018,-0.126,-7.23,-98.07,0.04,0.06,0.02
1894,1486.81,1533.55,1521.47,-0.4854,0.7527,0.3953,-0.609,-0.427,-0.350,29.59,61.62,-0.2202,-0.9275,0.4131,-0.037,0.123,-0.131,12.33,-65.82,0.1216,-0.9885,-0.1445,-0.066,0.049,-0.080,-7.22,-98.08,0.04,0.06,0.03
1918,1473.92,1452.16,1466.67,-0.4875,0.7593,0.4075,-0.639,0.321,-0.548,29.60,61.60,-0.2244,-0.9299,0.4116,-0.190,-0.106,-0.115,12.33,-65.83,0.1306,-0.9897,-0.1392,-0.081,0.018,0.134,-7.23,-98.08,0.03,0.06,0.03
1933,1496.48,1494.87,1491.65,-0.4895,0.7585,0.4045,-0.166,-0.320,-0.335,29.60,61.61,-0.2190,-0.9331,0.4207,0.772,-0.076,-0.176,12.32,-65.81,0.1248,-0.9912,-0.1472,0.041,-0.012,-0.019,-7.23,-98.09,0.03,0.06,0.03
1957,1469.89,1481.98,1472.31,-0.4861,0.7527,0.4026,0.139,-0.153,0.902,29.59,61.62,-0.2251,-0.9302,0.4109,-0.342,-0.152,0.236,12.32,-65.83,0.1250,-0.9893,-0.1357,-0.081,-0.089,-0.004,-7.23,-98.08,0.03,0.06,0.03
1971,1458.61,1439.27,1457.00,-0.4873,0.7576,0.4016,0.231,0.168,0.001,29.60,61.63,-0.2205,-0.9287,0.4177,0.849,-0.106,-0.329,12.32,-65.82,0.1294,-0.9895,-0.1355,-0.081,-0.135,-0.019,-7.23,-98.08,0.03,0.06,0.03
1996,1500.51,1545.64,1478.75,-0.4849,0.7522,0.4065,-1.296,-0.153,-1.128,29.59,61.60,-0.2222,-0.9255,0.4116,-0.419,-0.091,0.389,12.31,-65.83,0.1287,-0.9919,-0.1426,0.087,-0.089,0.027,-7.24,-98.08,0.03,0.06,0.03
2010,1478.75,1527.11,1482.78,-0.4866,0.7581,0.4004,-1.647,0.107,-2.075,29.59,61.59,-0.2219,-0.9302,0.4150,0.757,-0.137,-0.207,12.31,-65.82,0.1292,-0.9866,-0.1404,-0.096,-0.058,-0.034,-7.24,-98.08,0.03,0.06,0.03
2035,1490.04,1491.65,1457.80,-0.4849,0.7546,0.4111,-1.571,-0.565,-1.373,29.58,61.55,-0.2222,-0.9260,0.4199,-0.358,-0.122,0.327,12.31,-65.83,0.1296,-0.9866,-0.1409,0.225,0.155,-0.019,-7.24,-98.08,0.03,0.06,0.03
2049,1498.90,1508.57,1474.73,-0.4873,0.7500,0.4070,-1.235,0.122,-1.052,29.58,61.53,-0.2263,-0.9268,0.4167,0.070,0.000,-0.069,12.31,-65.83,0.1301,-0.9875,-0.1394,-0.004,0.003,0.134,-7.24,-98.07,0.03,0.06,0.03
2073,1467.47,1390.92,1473.92,-0.4868,0.7539,0.4067,1.193,0.122,1.039,29.59,61.56,-0.2183,-0.9280,0.4204,-0.373,-0.061,0.144,12.31,-65.83,0.1248,-0.9905,-0.1372,0.225,0.018,0.011,-7.24,-98.07,0.03,0.06,0.03
2088,1484.40,1456.19,1454.58,-0.4846,0.7517,0.3997,0.948,0.000,1.253,29.59,61.58,-0.2227,-0.9277,0.4167,-0.678,0.092,0.007,12.31,-65.84,0.1252,-0.9854,-0.1428,0.133,0.018,0.057,-7.24,-98.07,0.03,0.06,0.03
2112,1500.51,1537.58,1506.96,-0.4829,0.7551,0.4028,1.574,-0.076,1.223,29.58,61.62,-0.2222,-0.9282,0.4189,-0.083,0.092,0.022,12.31,-65.84,0.1226,-0.9905,-0.1406,0.057,-0.074,-0.004,-7.23,-98.07,0.03,0.06,0.03
2126,1475.53,1523.88,1498.90,-0.4839,0.7561,0.4006,0.536,-0.290,0.200,29.58,61.64,-0.2266,-0.9258,0.4180,-0.892,0.184,0.221,12.32,-65.85,0.1282,-0.9883,-0.1375,0.179,0.018,0.011,-7.24,-98.06,0.03,0.06,0.03
2151,1585.13,1475.53,1458.61,-0.4868,0.7559,0.4009,-1.479,0.199,-1.159,29.58,61.61,-0.2222,-0.9331,0.4158,0.681,-0.061,-0.329,12.32,-65.83,0.1257,-0.9871,-0.1392,-0.218,0.049,-0.095,-7.23,-98.07,0.03,0.06,0.03
2165,1498.10,1510.99,1465.05,-0.4873,0.7522,0.3979,-1.357,0.519,-1.587,29.59,61.61,-0.2224,-0.9263,0.4194,-0.251,-0.076,0.358,12.32,-65.83,0.1272,-0.9858,-0.1394,0.163,0.033,0.011,-7.23,-98.06,0.03,0.06,0.03
2190,1486.81,1446.52,1457.00,-0.4878,0.7588,0.4072,-1.937,0.367,-1.602,29.60,61.56,-0.2246,-0.9294,0.4189,1.108,-0.229,-0.253,12.31,-65.81,0.1252,-0.9873,-0.1514,-0.218,-0.119,0.072,-7.24,-98.08,0.03,0.06,0.03
2204,1473.11,1467.47,1462.64,-0.4880,0.7510,0.4001,-1.006,-0.107,-1.388,29.60,61.56,-0.2205,-0.9250,0.4229,-0.068,-0.152,0.129,12.31,-65.80,0.1292,-0.9854,-0.1418,0.240,0.003,-0.019,-7.24,-98.08,0.02,0.06,0.03
2228,1482.78,1521.47,1491.65,-0.4880,0.7546,0.4033,-0.212,0.015,-0.594,29.61,61.56,-0.2224,-0.9302,0.4189,0.100,0.107,-0.192,12.31,-65.80,0.1309,-0.9890,-0.1382,-0.279,-0.104,0.057,-7.25,-98.08,0.02,0.05,0.03
2242,1482.78,1492.45,1494.87,-0.4883,0.7517,0.4067,-0.105,0.122,0.093,29.61,61.56,-0.2236,-0.9280,0.4287,0.131,0.077,-0.192,12.31,-65.78,0.1279,-0.9888,-0.1436,0.087,0.064,0.072,-7.25,-98.09,0.02,0.05,0.03
2267,1486.81,1485.20,1454.58,-0.4885,0.7561,0.4084,0.613,-0.046,1.192,29.61,61.57,-0.2234,-0.9312,0.4182,-0.129,0.153,-0.085,12.32,-65.79,0.1248,-0.9866,-0.1421,0.011,-0.012,0.088,-7.24,-98.09,0.02,0.05,0.03
2281,1498.90,1522.27,1482.78,-0.4863,0.7615,0.4011,0.933,-0.015,0.933,29.61,61.60,-0.2219,-0.9297,0.4133,0.558,-0.030,-0.192,12.32,-65.78,0.1274,-0.9878,-0.1414,-0.081,-0.028,-0.065,-7.25,-98.09,0.02,0.05,0.03
2306,1478.75,1460.22,1431.21,-0.4846,0.7537,0.4016,0.124,0.367,0.581,29.61,61.61,-0.2258,-0.9253,0.4214,-0.342,-0.122,0.251,12.32,-65.79,0.1238,-0.9832,-0.1377,0.179,-0.043,0.011,-7.24,-98.08,0.02,0.05,0.03
2320,1471.50,1446.52,1459.41,-0.4890,0.7585,0.4021,-0.716,0.382,-0.136,29.62,61.61,-0.2229,-0.9319,0.4141,0.635,-0.076,-0.146,12.32,-65.78,0.1287,-0.9919,-0.1375,-0.325,-0.028,-0.019,-7.25,-98.08,0.01,0.04,0.03
2345,1483.59,1543.22,1523.88,-0.4858,0.7583,0.3979,-2.349,-0.656,-2.167,29.60,61.57,-0.2197,-0.9272,0.4175,-0.434,-0.106,0.282,12.31,-65.79,0.1235,-0.9854,-0.1377,0.133,-0.074,-0.065,-7.24,-98.08,0.01,0.04,0.03
2359,1457.00,1494.07,1475.53,-0.4927,0.7571,0.4014,-2.563,0.138,-2.121,29.61,61.54,-0.2224,-0.9297,0.4143,0.345,-0.091,-0.039,12.31,-65.79,0.1218,-0.9905,-0.1372,-0.218,-0.089,0.057,-7.24,-98.08,0.01,0.04,0.03
2383,1482.78,1472.31,1457.00,-0.4895,0.7517,0.4009,-1.128,-0.076,-1.434,29.62,61.52,-0.2249,-0.9299,0.4143,-0.159,0.031,0.144,12.32,-65.80,0.1309,-0.9873,-0.1406,0.240,0.064,0.011,-7.24,-98.07,0.01,0.04,0.03
2398,1508.57,1530.33,1462.64,-0.4875,0.7529,0.4084,-0.059,0.092,-0.090,29.62,61.52,-0.2249,-0.9263,0.4202,-0.419,0.016,0.053,12.32,-65.80,0.1277,-0.9897,-0.1414,0.118,0.018,0.088,-7.24,-98.07,0.01,0.04,0.03
2422,1469.08,1440.88,1482.78,-0.4863,0.7583,0.4028,2.109,-0.091,1.818,29.61,61.58,-0.2241,-0.9304,0.4175,0.055,-0.045,-0.008,12.32,-65.80,0.1282,-0.9893,-0.1438,0.179,0.094,0.134,-7.24,-98.07,0.01,0.04,0.03
2436,1465.86,1465.05,1512.60,-0.4875,0.7559,0.4065,1.864,0.672,2.246,29.62,61.61,-0.2224,-0.9270,0.4106,-0.419,-0.076,0.205,12.32,-65.81,0.1267,-0.9863,-0.1399,0.057,-0.058,-0.065,-7.24,-98.07,0.01,0.04,0.03
2461,1481.98,1519.05,1501.32,-0.4880,0.7642,0.3945,-0.090,-0.015,-0.319,29.62,61.63,-0.2217,-0.9321,0.4197,0.329,0.046,-0.268,12.32,-65.80,0.1252,-0.9915,-0.1411,-0.218,-0.058,0.042,-7.24,-98.08,0.01,0.04,0.03
2475,1450.55,1514.21,1491.65,-0.4915,0.7529,0.4062,-1.326,0.214,-1.968,29.63,61.61,-0.2192,-0.9275,0.4182,-0.693,0.123,0.175,12.32,-65.81,0.1255,-0.9846,-0.1392,0.209,0.049,0.011,-7.24,-98.07,0.00,0.03,0.03
2500,1472.31,1488.42,1467.47,-0.4861,0.7561,0.4026,-2.609,-0.320,-2.350,29.62,61.55,-0.2224,-0.9294,0.4131,0.528,0.031,-0.268,12.32,-65.80,0.1277,-0.9873,-0.1404,-0.172,-0.089,-0.004,-7.24,-98.08,0.00,0.03,0.03
2514,1481.17,1516.63,1431.21,-0.4875,0.7524,0.4067,-2.136,-0.580,-1.816,29.61,61.53,-0.2251,-0.9297,0.4197,0.161,-0.106,0.160,12.32,-65.80,0.1248,-0.9919,-0.1409,0.225,-0.058,0.057,-7.24,-98.08,0.00,0.03,0.03
2538,1472.31,1440.88,1479.56,-0.4861,0.7551,0.4075,0.216,-0.030,0.032,29.61,61.53,-0.2231,-0.9297,0.4136,0.849,-0.122,0.022,12.32,-65.78,0.1287,-0.9885,-0.1411,-0.157,0.003,-0.080,-7.24,-98.08,0.00,0.03,0.03
2553,1472.31,1458.61,1434.43,-0.4897,0.7527,0.4045,0.918,0.092,0.688,29.62,61.55,-0.2217,-0.9253,0.4207,0.513,-0.076,-0.054,12.32,-65.77,0.1238,-0.9880,-0.1443,0.133,0.003,-0.095,-7.24,-98.08,0.00,0.03,0.03
2577,1474.73,1515.02,1495.68,-0.4863,0.7556,0.3975,0.063,-0.259,0.001,29.61,61.57,-0.2219,-0.9287,0.4114,-0.266,0.153,-0.176,12.32,-65.78,0.1287,-0.9863,-0.1411,-0.066,-0.012,0.011,-7.24,-98.09,0.00,0.03,0.03
2591,1593.19,1490.84,1481.17,-0.4849,0.7510,0.4043,-0.807,-0.458,-0.640,29.61,61.56,-0.2217,-0.9277,0.4155,0.070,0.107,-0.176,12.32,-65.79,0.1250,-0.9902,-0.1455,-0.066,0.018,-0.080,-7.24,-98.09,0.00,0.03,0.03
2616,1483.59,1495.68,1475.53,-0.4873,0.7537,0.3992,-1.281,0.504,-1.495,29.62,61.54,-0.2241,-0.9312,0.4121,0.055,-0.122,0.144,12.32,-65.79,0.1279,-0.9900,-0.1401,-0.096,-0.074,0.027,-7.24,-98.09,0.00,0.03,0.03
2630,1509.38,1543.22,1494.07,-0.4824,0.7544,0.4014,-1.296,-0.153,-1.373,29.61,61.53,-0.2258,-0.9277,0.4229,0.589,-0.030,-0.131,12.32,-65.78,0.1265,-0.9866,-0.1404,-0.050,0.018,0.011,-7.24,-98.09,0.00,0.03,0.03
2655,1495.68,1470.70,1464.25,-0.4897,0.7598,0.4009,0.032,0.351,0.581,29.62,61.54,-0.2292,-0.9255,0.4180,-0.556,0.184,0.114,12.34,-65.79,0.1282,-0.9893,-0.1377,-0.096,-0.135,0.057,-7.25,-98.09,0.00,0.03,0.03
2669,1477.14,1459.41,1457.00,-0.4871,0.7598,0.4048,1.635,0.763,1.070,29.63,61.57,-0.2239,-0.9348,0.4192,0.406,0.138,-0.268,12.34,-65.78,0.1267,-0.9927,-0.1453,-0.050,-0.043,-0.050,-7.25,-98.10,0.00,0.03,0.02
2693,1469.08,1509.38,1492.45,-0.4841,0.7585,0.3958,0.429,-0.382,0.520,29.62,61.60,-0.2209,-0.9280,0.4116,-0.235,-0.076,0.312,12.33,-65.80,0.1250,-0.9854,-0.1458,-0.066,-0.028,0.042,-7.25,-98.11,0.00,0.03,0.02
2708,1421.54,1484.40,1488.42,-0.4856,0.7561,0.4019,-0.991,0.611,-0.457,29.63,61.60,-0.2224,-0.9272,0.4165,0.833,-0.015,-0.207,12.33,-65.78,0.1284,-0.9902,-0.1348,-0.096,-0.058,-0.019,-7.25,-98.10,0.00,0.02,0.02
2732,1349.82,1534.36,1470.70,-0.4814,0.7576,0.4048,-2.242,-0.504,-2.289,29.61,61.55,-0.2261,-0.9263,0.4160,-0.510,0.000,0.282,12.34,-65.80,0.1255,-0.9844,-0.1377,0.194,-0.043,-0.065,-7.25,-98.09,0.00,0.02,0.02
2746,1473.92,1544.84,1498.10,-0.4868,0.7581,0.4006,-2.960,-0.519,-2.426,29.60,61.52,-0.2227,-0.9294,0.4111,-0.037,0.046,-0.008,12.34,-65.80,0.1277,-0.9878,-0.1392,0.057,-0.074,-0.004,-7.25,-98.09,0.01,0.02,0.02
2771,1458.61,1465.86,1465.05,-0.4910,0.7510,0.4058,-0.578,-0.458,-0.609,29.60,61.51,-0.2251,-0.9290,0.4211,-0.144,0.016,0.221,12.34,-65.80,0.1294,-0.9875,-0.1416,0.240,0.110,0.027,-7.25,-98.09,0.01,0.03,0.02
2785,1482.78,1462.64,1434.43,-0.4868,0.7520,0.4038,0.918,0.382,0.872,29.60,61.52,-0.2219,-0.9268,0.4114,-0.297,-0.030,0.129,12.34,-65.81,0.1282,-0.9866,-0.1387,-0.111,-0.104,0.057,-7.25,-98.09,0.01,0.03,0.02
2810,1465.05,1494.87,1495.68,-0.4895,0.7571,0.4014,1.925,0.687,1.620,29.62,61.58,-0.2205,-0.9275,0.4165,0.268,0.031,0.007,12.34,-65.81,0.1289,-0.9888,-0.1387,0.072,0.018,-0.034,-7.25,-98.08,0.01,0.02,0.01
2824,1484.40,1477.14,1483.59,-0.4878,0.7512,0.4058,0.765,-0.198,1.116,29.62,61.59,-0.2214,-0.9321,0.4160,-0.739,-0.030,0.327,12.34,-65.82,0.1277,-0.9851,-0.1357,0.102,0.079,-0.004,-7.25,-98.08,0.01,0.02,0.01
2848,1488.42,1520.66,1484.40,-0.4885,0.7595,0.4028,-0.792,0.138,-0.686,29.63,61.58,-0.2241,-0.9333,0.4148,0.635,0.168,-0.344,12.34,-65.81,0.1245,-0.9924,-0.1404,-0.142,0.003,-0.050,-7.25,-98.08,0.01,0.02,0.01
2863,1478.75,1524.69,1501.32,-0.4846,0.7620,0.4062,-1.097,0.107,-1.403,29.62,61.57,-0.2249,-0.9299,0.4258,-0.281,0.092,0.297,12.34,-65.80,0.1289,-0.9888,-0.1423,0.240,0.033,0.027,-7.25,-98.08,0.01,0.02,0.01
2887,1483.59,1453.77,1451.36,-0.4863,0.7583,0.4026,-0.823,-0.168,-1.098,29.61,61.56,-0.2236,-0.9329,0.4219,0.849,-0.015,-0.375,12.34,-65.78,0.1279,-0.9856,-0.1362,-0.233,-0.028,-0.004,-7.25,-98.08,0.01,0.02,0.01
2902,1497.29,1462.64,1451.36,-0.4858,0.7554,0.3967,-0.395,0.168,-0.426,29.62,61.57,-0.2261,-0.9294,0.4119,0.085,0.107,0.022,12.35,-65.79,0.1289,-0.9924,-0.1360,-0.004,-0.012,0.072,-7.26,-98.07,0.01,0.02,0.01
2926,1488.42,1508.57,1482.78,-0.4866,0.7549,0.4011,0.613,0.031,0.154,29.62,61.60,-0.2224,-0.9302,0.4150,0.009,0.016,-0.222,12.35,-65.79,0.1270,-0.9875,-0.1399,-0.218,-0.104,-0.004,-7.26,-98.08,0.01,0.02,0.00
2940,1443.30,1456.19,1471.50,-0.4878,0.7581,0.4038,-0.502,0.519,-0.136,29.63,61.60,-0.2224,-0.9329,0.4236,0.482,-0.015,-0.176,12.35,-65.78,0.1230,-0.9851,-0.1370,-0.081,0.033,-0.065,-7.25,-98.08,0.01,0.02,0.00
2965,1456.19,1526.30,1483.59,-0.4871,0.7524,0.4055,-0.624,-0.046,-0.884,29.63,61.58,-0.2217,-0.9277,0.4202,-0.159,-0.030,0.083,12.34,-65.78,0.1260,-0.9873,-0.1431,0.179,-0.043,0.103,-7.25,-98.08,0.01,0.01,0.00
2979,1491.65,1511.79,1486.01,-0.4875,0.7573,0.4009,-1.494,-0.443,-1.022,29.62,61.57,-0.2214,-0.9321,0.4197,0.849,-0.198,-0.268,12.34,-65.77,0.1265,-0.9868,-0.1433,-0.249,-0.119,0.057,-7.26,-98.08,0.01,0.01,0.00
3004,1491.65,1444.10,1459.41,-0.4885,0.7537,0.4055,-0.349,-0.336,-0.167,29.61,61.57,-0.2290,-0.9243,0.4219,-0.724,0.016,0.343,12.35,-65.78,0.1262,-0.9871,-0.1394,0.392,0.110,0.057,-7.25,-98.07,0.01,0.01,0.00
3018,1501.32,1480.37,1457.00,-0.4846,0.7551,0.4036,-0.471,0.168,0.123,29.61,61.57,-0.2258,-0.9331,0.4180,0.100,0.092,-0.115,12.35,-65.78,0.1274,-0.9902,-0.1338,-0.203,0.018,0.042,-7.25,-98.07,0.02,0.01,-0.00
3043,1489.23,1502.93,1486.81,-0.4861,0.7542,0.4036,0.551,-0.046,0.490,29.61,61.59,-0.2236,-0.9299,0.4177,-0.617,-0.106,0.312,12.35,-65.79,0.1267,-0.9858,-0.1443,0.209,-0.012,0.042,-7.25,-98.07,0.02,0.01,-0.00
3057,1482.78,1457.80,1488.42,-0.4824,0.7542,0.4050,-0.319,-0.198,0.184,29.61,61.59,-0.2246,-0.9290,0.4106,-0.388,-0.061,0.160,12.35,-65.81,0.1279,-0.9861,-0.1418,-0.081,0.033,0.072,-7.25,-98.07,0.02,0.01,-0.00
3081,1500.51,1527.91,1491.65,-0.4893,0.7600,0.4036,-1.067,-0.214,-0.793,29.60,61.57,-0.2227,-0.9307,0.4155,0.238,-0.061,-0.008,12.35,-65.80,0.1243,-0.9883,-0.1445,0.072,0.018,0.011,-7.25,-98.08,0.02,0.02,-0.00
3096,1490.84,1550.48,1480.37,-0.4817,0.7544,0.4111,-0.792,-0.076,-1.388,29.59,61.55,-0.2266,-0.9292,0.4163,-0.571,-0.122,0.312,12.35,-65.81,0.1243,-0.9841,-0.1355,0.163,-0.012,0.118,-7.25,-98.07,0.02,0.02,-0.00
3120,1481.17,1446.52,1457.00,-0.4854,0.7576,0.4043,-1.067,-0.091,-0.961,29.59,61.54,-0.2258,-0.9302,0.4207,0.421,0.016,-0.192,12.35,-65.80,0.1262,-0.9861,-0.1396,-0.096,-0.043,-0.095,-7.25,-98.07,0.02,0.02,-0.00
3134,1500.51,1482.78,1467.47,-0.4868,0.7534,0.3989,-0.487,0.092,-0.503,29.59,61.54,-0.2236,-0.9309,0.4167,-0.755,-0.045,0.251,12.35,-65.81,0.1272,-0.9905,-0.1377,0.133,-0.012,0.011,-7.25,-98.07,0.03,0.02,-0.01
3159,1477.14,1499.71,1531.94,-0.4897,0.7571,0.4001,-0.075,0.000,0.413,29.60,61.55,-0.2195,-0.9287,0.4194,0.360,0.046,-0.176,12.35,-65.80,0.1301,-0.9868,-0.1404,-0.188,0.049,-0.126,-7.25,-98.07,0.03,0.02,-0.01
3173,1486.01,1465.86,1482.78,-0.4854,0.7539,0.4016,-0.365,-0.397,-0.350,29.59,61.55,-0.2239,-0.9316,0.4160,-0.434,0.123,0.175,12.35,-65.81,0.1284,-0.9871,-0.1377,0.225,-0.058,-0.126,-7.25,-98.06,0.03,0.02,-0.01
3198,1503.74,1500.51,1485.20,-0.4878,0.7573,0.4038,-0.105,0.367,-0.533,29.60,61.56,-0.2253,-0.9309,0.4185,0.864,-0.061,-0.268,12.35,-65.79,0.1309,-0.9902,-0.1357,-0.356,-0.135,-0.034,-7.26,-98.07,0.03,0.02,-0.01
3212,1473.92,1508.57,1510.18,-0.4888,0.7544,0.4053,-0.258,-0.153,-0.533,29.60,61.56,-0.2214,-0.9307,0.4148,0.391,-0.183,0.098,12.35,-65.79,0.1270,-0.9880,-0.1345,0.255,0.079,0.057,-7.26,-98.06,0.03,0.02,-0.01
3237,1483.59,1433.63,1461.03,-0.4841,0.7549,0.4021,-0.273,-0.076,-1.098,29.60,61.56,-0.2251,-0.9297,0.4172,0.284,0.046,-0.146,12.35,-65.78,0.1223,-0.9890,-0.1440,-0.249,-0.043,0.011,-7.25,-98.07,0.03,0.02,-0.01
3251,1483.59,1461.83,1474.73,-0.4910,0.7542,0.4048,-0.578,0.244,-0.472,29.61,61.56,-0.2246,-0.9307,0.4211,0.161,0.123,-0.192,12.35,-65.78,0.1282,-0.9915,-0.1362,-0.050,0.049,-0.050,-7.25,-98.06,0.03,0.02,-0.01
3275,1468.28,1483.59,1482.78,-0.4834,0.7588,0.4014,-0.471,-0.198,-0.075,29.60,61.56,-0.2249,-0.9287,0.4165,-0.556,-0.015,0.022,12.36,-65.79,0.1223,-0.9888,-0.1401,0.255,0.079,-0.050,-7.25,-98.06,0.03,0.02,-0.01
3290,1474.73,1465.86,1479.56,-0.4910,0.7568,0.4033,-0.807,0.260,-0.151,29.60,61.55,-0.2231,-0.9329,0.4197,0.543,-0.045,-0.268,12.35,-65.78,0.1287,-0.9922,-0.1394,-0.172,-0.089,-0.019,-7.25,-98.06,0.04,0.02,-0.01
3314,1495.68,1532.75,1482.78,-0.4905,0.7522,0.4019,0.093,0.076,0.276,29.61,61.56,-0.2236,-0.9272,0.4114,-0.281,-0.061,0.236,12.35,-65.80,0.1267,-0.9834,-0.1345,0.225,0.140,-0.095,-7.25,-98.05,0.04,0.02,-0.01
3328,1468.28,1521.47,1488.42,-0.4851,0.7546,0.4009,-0.502,0.092,-0.075,29.61,61.56,-0.2249,-0.9292,0.4182,0.849,-0.030,-0.253,12.36,-65.78,0.1230,-0.9902,-0.1409,-0.279,-0.119,-0.080,-7.24,-98.05,0.04,0.02,-0.01
3353,1503.74,1474.73,1461.03,-0.4858,0.7522,0.4014,-0.456,0.092,-0.762,29.62,61.56,-0.2231,-0.9233,0.4202,-0.434,-0.091,0.389,12.35,-65.79,0.1287,-0.9866,-0.1433,0.163,0.033,0.088,-7.25,-98.05,0.04,0.02,-0.01
3367,1508.57,1488.42,1461.83,-0.4866,0.7532,0.4070,-1.052,0.046,-1.083,29.62,61.55,-0.2219,-0.9312,0.4153,0.177,-0.106,0.007,12.35,-65.79,0.1262,-0.9846,-0.1418,-0.081,-0.135,0.072,-7.25,-98.06,0.04,0.02,-0.01
3392,1458.61,1475.53,1494.07,-0.4849,0.7576,0.4058,-1.067,-0.061,-1.098,29.61,61.53,-0.2246,-0.9297,0.4136,-0.449,0.046,0.144,12.35,-65.81,0.1294,-0.9900,-0.1370,0.102,0.003,0.027,-7.25,-98.05,0.04,0.02,-0.01
3406,1483.59,1461.03,1493.26,-0.4885,0.7549,0.4045,-0.807,-0.534,-1.022,29.61,61.52,-0.2246,-0.9277,0.4148,-0.510,0.000,0.098,12.36,-65.81,0.1240,-0.9915,-0.1357,0.011,0.003,0.118,-7.25,-98.05,0.04,0.02,-0.01
3431,1497.29,1508.57,1508.57,-0.4856,0.7542,0.3960,0.826,0.183,0.917,29.61,61.56,-0.2217,-0.9309,0.4219,-0.037,0.138,0.068,12.36,-65.81,0.1292,-0.9851,-0.1372,0.026,0.003,-0.050,-7.25,-98.04,0.04,0.02,-0.01
3445,1477.95,1520.66,1493.26,-0.4851,0.7546,0.3994,1.254,-0.320,0.627,29.61,61.59,-0.2275,-0.9302,0.4106,-0.816,0.061,0.236,12.36,-65.83,0.1260,-0.9875,-0.1453,0.225,0.110,0.057,-7.25,-98.05,0.04,0.02,-0.01
3469,1495.68,1463.44,1452.97,-0.4875,0.7629,0.4043,0.903,-0.030,1.345,29.60,61.62,-0.2224,-0.9331,0.4160,0.421,0.031,-0.131,12.36,-65.82,0.1255,-0.9880,-0.1414,-0.020,0.033,-0.034,-7.24,-98.05,0.04,0.02,-0.01
3483,1481.98,1494.07,1467.47,-0.4858,0.7568,0.3987,0.307,0.199,0.505,29.61,61.63,-0.2253,-0.9304,0.4158,-0.419,-0.061,0.358,12.36,-65.83,0.1240,-0.9844,-0.1311,0.209,0.064,-0.050,-7.24,-98.04,0.04,0.02,-0.01
3508,1494.87,1468.28,1482.78,-0.4858,0.7544,0.4067,-1.723,0.367,-1.388,29.61,61.59,-0.2239,-0.9314,0.4226,0.940,-0.061,-0.131,12.36,-65.80,0.1267,-0.9863,-0.1396,-0.111,0.049,-0.004,-7.24,-98.04,0.04,0.02,-0.01
3522,1481.98,1471.50,1456.19,-0.4878,0.7554,0.4014,-1.968,0.153,-2.411,29.62,61.57,-0.2261,-0.9260,0.4116,-0.037,-0.198,0.297,12.36,-65.81,0.1267,-0.9895,-0.1367,0.057,0.003,-0.019,-7.24,-98.04,0.04,0.02,-0.02
3547,1477.95,1525.49,1475.53,-0.4895,0.7542,0.3997,-2.090,-0.702,-2.090,29.60,61.53,-0.2229,-0.9275,0.4126,0.726,0.031,-0.268,12.37,-65.80,0.1255,-0.9849,-0.1362,-0.020,0.033,-0.050,-7.24,-98.03,0.04,0.03,-0.02
3561,1482.78,1530.33,1487.62,-0.4888,0.7551,0.4072,-1.113,-0.061,-1.052,29.60,61.52,-0.2234,-0.9324,0.4199,0.299,0.016,-0.039,12.36,-65.79,0.1272,-0.9932,-0.1345,0.118,-0.028,0.027,-7.24,-98.03,0.04,0.03,-0.02
3586,1493.26,1458.61,1473.92,-0.4856,0.7542,0.4001,0.322,0.153,0.062,29.61,61.54,-0.2249,-0.9285,0.4143,-0.037,-0.076,-0.039,12.36,-65.79,0.1255,-0.9875,-0.1433,0.057,0.094,0.057,-7.23,-98.03,0.04,0.03,-0.02
3600,1510.99,1495.68,1471.50,-0.4910,0.7566,0.4011,1.055,0.489,1.207,29.62,61.56,-0.2214,-0.9294,0.4185,0.482,0.000,-0.268,12.36,-65.79,0.1265,-0.9873,-0.1440,-0.295,-0.058,-0.004,-7.23,-98.04,0.04,0.03,-0.01
3624,1474.73,1459.41,1478.75,-0.4863,0.7576,0.4006,1.223,0.092,0.780,29.62,61.60,-0.2222,-0.9297,0.4177,-0.922,0.077,0.129,12.36,-65.81,0.1277,-0.9880,-0.1326,-0.035,-0.058,0.042,-7.24,-98.03,0.04,0.03,-0.01
3639,1463.44,1448.94,1457.00,-0.4871,0.7546,0.3955,0.261,0.443,0.749,29.63,61.62,-0.2227,-0.9302,0.4167,0.314,0.107,-0.344,12.36,-65.81,0.1270,-0.9871,-0.1375,-0.233,-0.135,-0.019,-7.24,-98.03,0.04,0.03,-0.01
3663,1482.78,1531.94,1502.93,-0.4871,0.7537,0.4019,-0.151,-0.076,-0.548,29.63,61.63,-0.2268,-0.9321,0.4155,-0.693,0.016,0.373,12.37,-65.83,0.1248,-0.9861,-0.1318,0.057,-0.012,0.072,-7.24,-98.02,0.04,0.02,-0.02
3677,1463.44,1514.21,1491.65,-0.4890,0.7603,0.4060,-1.235,0.443,-0.518,29.63,61.61,-0.2253,-0.9336,0.4180,0.589,0.031,-0.100,12.37,-65.82,0.1248,-0.9900,-0.1440,-0.233,0.003,-0.019,-7.24,-98.03,0.04,0.02,-0.02
3702,1484.40,1451.36,1459.41,-0.4863,0.7517,0.3989,-1.036,-0.519,-1.174,29.62,61.60,-0.2224,-0.9280,0.4197,-0.464,-0.168,0.282,12.36,-65.83,0.1228,-0.9861,-0.1421,0.209,0.003,0.011,-7.23,-98.03,0.04,0.02,-0.01
3716,1486.81,1496.48,1457.80,-0.4863,0.7539,0.4043,-0.929,0.183,-1.693,29.63,61.59,-0.2229,-0.9260,0.4202,0.024,-0.030,0.022,12.36,-65.82,0.1233,-0.9893,-0.1440,-0.081,0.033,0.072,-7.23,-98.04,0.04,0.02,-0.01
3741,1451.36,1477.14,1490.04,-0.4885,0.7512,0.4033,-1.281,-0.397,-1.312,29.62,61.56,-0.2180,-0.9277,0.4165,0.345,-0.168,0.282,12.35,-65.81,0.1267,-0.9880,-0.1428,-0.020,-0.058,0.042,-7.23,-98.04,0.04,0.02,-0.01
3755,1483.59,1432.82,1457.80,-0.4844,0.7524,0.4055,-1.281,-0.458,-1.113,29.61,61.55,-0.2217,-0.9290,0.4136,-0.006,-0.045,0.205,12.35,-65.82,0.1260,-0.9900,-0.1406,0.041,-0.058,0.088,-7.23,-98.04,0.04,0.03,-0.01
3779,1481.98,1516.63,1488.42,-0.4851,0.7598,0.4033,-1.189,-0.137,-0.732,29.61,61.53,-0.2214,-0.9265,0.4248,0.268,-0.076,0.007,12.35,-65.80,0.1262,-0.9873,-0.1382,0.026,0.064,-0.050,-7.23,-98.04,0.04,0.03,-0.01
3794,1466.67,1529.52,1482.78,-0.4849,0.7524,0.4070,-0.456,-0.183,-0.060,29.60,61.52,-0.2217,-0.9292,0.4204,-0.709,-0.015,0.297,12.35,-65.81,0.1267,-0.9883,-0.1445,0.163,0.003,-0.111,-7.23,-98.04,0.04,0.03,-0.01
3818,1504.54,1472.31,1467.47,-0.4907,0.7517,0.4050,0.216,0.092,0.352,29.61,61.53,-0.2202,-0.9309,0.4268,-0.052,0.168,-0.253,12.35,-65.80,0.1282,-0.9861,-0.1316,0.102,0.064,-0.019,-7.23,-98.03,0.04,0.03,-0.01
3832,1482.78,1504.54,1477.14,-0.4851,0.7527,0.3994,0.780,0.000,0.612,29.61,61.55,-0.2227,-0.9270,0.4204,-0.861,0.168,0.129,12.35,-65.81,0.1272,-0.9888,-0.1389,0.133,-0.058,-0.004,-7.23,-98.03,0.04,0.03,-0.01
3857,1462.64,1452.97,1457.80,-0.4871,0.7598,0.4050,0.765,-0.076,1.116,29.61,61.58,-0.2219,-0.9290,0.4155,0.055,0.168,-0.222,12.35,-65.81,0.1235,-0.9880,-0.1321,-0.142,0.018,-0.019,-7.23,-98.02,0.04,0.03,-0.00
3871,1482.78,1438.46,1447.33,-0.4883,0.7539,0.3994,0.811,-0.137,0.826,29.61,61.60,-0.2224,-0.9338,0.4133,-0.251,0.061,0.007,12.35,-65.82,0.1267,-0.9854,-0.1343,0.102,0.033,-0.034,-7.23,-98.02,0.04,0.03,-0.00
3896,1480.37,1544.84,1508.57,-0.4910,0.7554,0.4026,-0.991,0.229,-0.365,29.62,61.58,-0.2239,-0.9304,0.4141,0.268,-0.015,-0.100,12.35,-65.82,0.1248,-0.9873,-0.1379,-0.081,-0.012,0.042,-7.22,-98.02,0.04,0.03,-0.00
3910,1482.78,1515.82,1459.41,-0.4854,0.7563,0.4031,-0.655,0.000,-1.098,29.62,61.58,-0.2222,-0.9304,0.4148,0.681,0.016,-0.069,12.35,-65.81,0.1255,-0.9902,-0.1367,-0.050,-0.135,0.057,-7.22,-98.01,0.04,0.03,-0.00
3934,1482.78,1478.75,1472.31,-0.4880,0.7581,0.3999,-1.983,-0.305,-1.693,29.61,61.55,-0.2246,-0.9292,0.4119,0.375,-0.198,0.022,12.35,-65.81,0.1245,-0.9868,-0.1406,-0.218,-0.028,0.072,-7.22,-98.02,0.04,0.03,-0.00
3949,1506.96,1515.82,1482.78,-0.4888,0.7583,0.4048,-1.891,-0.458,-2.380,29.60,61.53,-0.2222,-0.9304,0.4219,0.925,-0.183,-0.100,12.34,-65.79,0.1279,-0.9880,-0.1387,-0.035,0.018,0.027,-7.22,-98.02,0.04,0.04,0.00
3973,1458.61,1485.20,1481.17,-0.4863,0.7515,0.4082,-1.540,-0.458,-1.205,29.59,61.49,-0.2231,-0.9265,0.4146,-0.144,-0.076,0.190,12.34,-65.80,0.1289,-0.9861,-0.1433,-0.081,-0.043,0.072,-7.23,-98.03,0.04,0.04,0.00
3987,1483.59,1470.70,1469.89,-0.4863,0.7593,0.4102,-1.265,0.183,-0.716,29.59,61.47,-0.2212,-0.9309,0.4224,0.650,-0.076,-0.054,12.34,-65.78,0.1250,-0.9851,-0.1418,0.087,0.049,-0.004,-7.23,-98.03,0.04,0.04,0.00
4012,1482.78,1529.52,1494.07,-0.4861,0.7490,0.4023,0.735,-0.290,0.688,29.59,61.50,-0.2212,-0.9268,0.4133,-0.464,0.184,0.190,12.34,-65.80,0.1284,-0.9873,-0.1382,0.011,-0.012,0.134,-7.23,-98.03,0.04,0.04,0.00
4026,1485.20,1515.82,1506.96,-0.4858,0.7544,0.3997,0.658,0.794,0.963,29.60,61.52,-0.2192,-0.9304,0.4255,-0.052,0.077,-0.085,12.34,-65.79,0.1245,-0.9861,-0.1379,-0.004,0.079,0.027,-7.23,-98.03,0.04,0.04,0.00
4051,1481.17,1479.56,1452.16,-0.4873,0.7563,0.4026,0.826,-0.244,0.551,29.60,61.55,-0.2209,-0.9297,0.4133,-0.541,0.123,0.190,12.34,-65.81,0.1245,-0.9824,-0.1389,0.102,0.094,0.057,-7.22,-98.03,0.04,0.04,0.01
4065,1488.42,1519.85,1483.59,-0.4839,0.7534,0.4070,0.338,-0.091,0.291,29.59,61.55,-0.2197,-0.9285,0.4131,-0.266,-0.030,-0.008,12.34,-65.82,0.1284,-0.9919,-0.1387,0.072,-0.043,0.134,-7.22,-98.02,0.04,0.04,0.01
4089,1477.95,1477.95,1477.95,-0.4814,0.7585,0.4009,0.109,-0.427,-0.533,29.58,61.57,-0.2229,-0.9324,0.4180,-0.144,0.061,0.068,12.34,-65.82,0.1240,-0.9905,-0.1392,0.087,0.110,-0.019,-7.22,-98.02,0.04,0.05,0.01
4104,1492.45,1431.21,1440.07,-0.4829,0.7573,0.4016,-0.349,-0.275,-0.655,29.57,61.57,-0.2231,-0.9270,0.4158,-0.358,-0.045,0.175,12.34,-65.83,0.1252,-0.9871,-0.1392,-0.020,-0.104,-0.034,-7.22,-98.02,0.04,0.05,0.01
4128,1496.48,1535.97,1495.68,-0.4919,0.7559,0.4062,-1.021,0.046,-1.342,29.57,61.55,-0.2227,-0.9282,0.4143,0.482,-0.091,-0.085,12.34,-65.82,0.1277,-0.9856,-0.1384,-0.004,-0.028,-0.019,-7.22,-98.02,0.04,0.05,0.01
4143,1488.42,1488.42,1543.22,-0.4871,0.7549,0.4053,-0.807,-0.229,-1.449,29.57,61.54,-0.2229,-0.9250,0.4170,0.024,-0.045,0.251,12.34,-65.82,0.1287,-0.9885,-0.1418,0.041,-0.012,0.057,-7.22,-98.02,0.04,0.06,0.01
4167,1493.26,1493.26,1460.22,-0.4893,0.7583,0.4048,-0.929,0.046,-0.762,29.57,61.53,-0.2192,-0.9314,0.4199,0.803,-0.106,-0.207,12.33,-65.79,0.1262,-0.9924,-0.1340,-0.203,-0.074,-0.065,-7.22,-98.02,0.04,0.06,0.01
4181,1500.51,1506.15,1465.86,-0.4858,0.7588,0.4104,-0.304,-0.214,-0.518,29.57,61.53,-0.2229,-0.9255,0.4211,0.146,-0.030,0.160,12.33,-65.79,0.1294,-0.9871,-0.1487,0.026,0.049,-0.019,-7.23,-98.03,0.04,0.06,0.01
4206,1491.65,1457.00,1459.41,-0.4868,0.7563,0.4048,-0.456,0.076,0.184,29.57,61.52,-0.2251,-0.9285,0.4160,0.116,-0.045,-0.069,12.33,-65.79,0.1233,-0.9897,-0.1309,-0.279,-0.074,0.042,-7.23,-98.03,0.05,0.06,0.02
4220,1471.50,1447.33,1441.69,-0.4868,0.7527,0.4094,0.185,-0.443,0.643,29.56,61.52,-0.2236,-0.9324,0.4229,-0.022,0.107,-0.039,12.33,-65.78,0.1267,-0.9868,-0.1401,-0.035,-0.012,-0.065,-7.23,-98.03,0.05,0.06,0.02
4245,1472.31,1519.85,1486.81,-0.4883,0.7527,0.4072,0.353,0.412,0.215,29.58,61.53,-0.2253,-0.9312,0.4163,-0.419,0.061,0.007,12.34,-65.80,0.1250,-0.9895,-0.1414,-0.111,0.018,0.027,-7.22,-98.03,0.05,0.06,0.02
4259,1478.75,1495.68,1494.87,-0.4912,0.7588,0.4026,0.185,-0.046,-0.029,29.58,61.55,-0.2227,-0.9299,0.4224,0.360,0.061,-0.283,12.34,-65.79,0.1260,-0.9929,-0.1404,-0.066,0.079,0.042,-7.22,-98.04,0.05,0.07,0.02
4284,1485.20,1481.98,1452.97,-0.4844,0.7517,0.3972,-0.731,-0.153,-0.319,29.58,61.54,-0.2227,-0.9253,0.4089,-0.526,0.031,0.251,12.34,-65.81,0.1262,-0.9878,-0.1375,0.087,-0.012,0.011,-7.22,-98.03,0.05,0.07,0.02
4298,1502.93,1524.69,1470.70,-0.4910,0.7620,0.4075,-0.731,0.031,-0.762,29.58,61.54,-0.2266,-0.9329,0.4187,0.940,-0.015,-0.283,12.34,-65.79,0.1260,-0.9924,-0.1475,-0.188,0.018,-0.050,-7.22,-98.04,0.05,0.07,0.02
4322,1473.92,1453.77,1457.00,-0.4873,0.7573,0.4004,-1.128,-0.259,-1.403,29.57,61.52,-0.2214,-0.9275,0.4238,-0.617,-0.137,0.373,12.34,-65.80,0.1277,-0.9851,-0.1418,0.179,-0.028,0.042,-7.22,-98.04,0.05,0.07,0.02
4337,1490.04,1462.64,1471.50,-0.4873,0.7583,0.4028,-1.647,-0.519,-1.571,29.57,61.51,-0.2202,-0.9268,0.4209,0.528,-0.030,-0.176,12.33,-65.79,0.1265,-0.9832,-0.1428,-0.249,-0.028,0.011,-7.22,-98.05,0.05,0.07,0.02
4361,1458.61,1531.94,1486.01,-0.4895,0.7551,0.4036,-0.517,-0.504,-1.464,29.56,61.50,-0.2219,-0.9314,0.4224,-0.419,-0.030,0.266,12.33,-65.80,0.1272,-0.9868,-0.1392,0.225,0.064,-0.080,-7.22,-98.04,0.05,0.07,0.02
4375,1478.75,1482.78,1481.98,-0.4888,0.7529,0.4026,-0.884,0.382,-0.228,29.57,61.50,-0.2253,-0.9270,0.4124,-0.022,0.046,0.037,12.34,-65.80,0.1228,-0.9839,-0.1401,-0.127,-0.058,-0.004,-7.22,-98.05,0.05,0.07,0.02
4400,1411.06,1496.48,1482.78,-0.4856,0.7583,0.3984,0.399,-0.214,1.055,29.56,61.52,-0.2234,-0.9277,0.4202,-0.006,0.123,-0.039,12.34,-65.80,0.1260,-0.9897,-0.1350,0.026,0.049,-0.004,-7.22,-98.04,0.05,0.08,0.02
4414,1498.90,1508.57,1508.57,-0.4868,0.7544,0.4026,0.903,0.092,0.795,29.57,61.54,-0.2231,-0.9255,0.4119,-0.602,0.092,0.205,12.34,-65.81,0.1255,-0.9897,-0.1409,-0.066,0.049,-0.004,-7.22,-98.04,0.05,0.08,0.02
4439,1479.56,1452.16,1472.31,-0.4907,0.7563,0.4048,0.551,0.260,0.383,29.58,61.56,-0.2219,-0.9292,0.4148,0.223,0.000,-0.176,12.34,-65.81,0.1252,-0.9863,-0.1389,-0.096,0.018,-0.095,-7.21,-98.04,0.06,0.08,0.02
4453,1484.40,1405.42,1454.58,-0.4861,0.7544,0.4019,0.353,0.244,-0.426,29.58,61.58,-0.2251,-0.9268,0.4177,-0.464,0.016,0.205,12.35,-65.81,0.1277,-0.9873,-0.1370,0.133,0.049,0.042,-7.22,-98.04,0.06,0.08,0.02
4478,1476.34,1508.57,1473.11,-0.4822,0.7583,0.4043,-0.853,-0.076,-1.495,29.57,61.56,-0.2202,-0.9321,0.4182,0.635,0.046,-0.237,12.34,-65.80,0.1279,-0.9875,-0.1509,-0.218,-0.104,-0.111,-7.22,-98.06,0.06,0.08,0.02
4492,1465.05,1495.68,1498.90,-0.4836,0.7546,0.4006,-1.372,-0.168,-1.678,29.57,61.55,-0.2202,-0.9321,0.4155,0.039,-0.244,0.068,12.34,-65.80,0.1245,-0.9863,-0.1379,0.209,0.018,-0.050,-7.22,-98.05,0.06,0.08,0.02
4516,1500.51,1508.57,1461.83,-0.4858,0.7578,0.4058,-1.571,-0.091,-1.632,29.57,61.52,-0.2258,-0.9290,0.4211,0.467,-0.091,-0.085,12.34,-65.79,0.1287,-0.9883,-0.1428,-0.127,-0.012,-0.034,-7.22,-98.06,0.06,0.08,0.02
4531,1494.07,1519.85,1510.18,-0.4878,0.7542,0.4014,-0.471,0.183,-0.258,29.57,61.52,-0.2244,-0.9294,0.4204,0.360,0.031,-0.131,12.34,-65.78,0.1277,-0.9890,-0.1401,0.041,0.064,0.027,-7.22,-98.06,0.06,0.08,0.02
4555,1480.37,1423.15,1453.77,-0.4868,0.7554,0.4055,-0.410,0.305,-0.045,29.58,61.52,-0.2217,-0.9309,0.4175,-0.022,0.046,-0.008,12.34,-65.78,0.1250,-0.9883,-0.1377,-0.066,0.018,-0.050,-7.22,-98.06,0.06,0.08,0.02
4569,1475.53,1444.91,1470.70,-0.4851,0.7566,0.4043,0.032,0.107,0.032,29.58,61.53,-0.2246,-0.9316,0.4182,0.558,0.092,-0.192,12.34,-65.77,0.1282,-0.9900,-0.1401,-0.050,0.003,-0.019,-7.22,-98.06,0.06,0.08,0.02
4594,1494.07,1534.36,1485.20,-0.4868,0.7571,0.4080,0.292,-0.336,0.536,29.57,61.54,-0.2192,-0.9285,0.4170,-0.602,-0.137,0.175,12.33,-65.79,0.1250,-0.9827,-0.1409,0.148,-0.119,0.027,-7.22,-98.06,0.06,0.08,0.02
4608,1470.70,1482.78,1485.20,-0.4880,0.7556,0.4031,0.170,0.092,-0.167,29.57,61.55,-0.2273,-0.9304,0.4172,0.329,0.107,-0.360,12.34,-65.78,0.1282,-0.9910,-0.1396,-0.310,-0.089,0.011,-7.23,-98.06,0.06,0.08,0.02
4632,1504.54,1521.47,1461.03,-0.4851,0.7561,0.4016,-0.212,-0.214,-0.121,29.57,61.55,-0.2219,-0.9233,0.4197,-0.831,0.061,0.312,12.34,-65.80,0.1287,-0.9844,-0.1394,0.179,-0.012,-0.050,-7.23,-98.06,0.06,0.08,0.02
4647,1495.68,1526.30,1485.20,-0.4875,0.7581,0.4016,-1.189,-0.122,-0.212,29.57,61.54,-0.2256,-0.9299,0.4197,0.268,-0.045,-0.176,12.34,-65.79,0.1255,-0.9885,-0.1389,-0.066,-0.028,-0.019,-7.23,-98.06,0.06,0.08,0.02
4671,1477.14,1477.95,1474.73,-0.4883,0.7524,0.4026,0.017,-0.259,-0.365,29.56,61.55,-0.2209,-0.9304,0.4158,-0.342,-0.045,0.205,12.34,-65.81,0.1218,-0.9895,-0.1426,0.102,0.003,-0.034,-7.22,-98.06,0.06,0.08,0.02
4685,1534.36,1479.56,1459.41,-0.4907,0.7563,0.4009,-0.105,-0.168,-0.243,29.57,61.56,-0.2253,-0.9285,0.4099,0.161,-0.045,-0.008,12.34,-65.81,0.1267,-0.9880,-0.1326,0.041,0.079,-0.065,-7.22,-98.05,0.06,0.08,0.02
4710,1469.08,1501.32,1487.62,-0.4863,0.7573,0.4021,-0.533,-0.153,-0.762,29.56,61.56,-0.2188,-0.9272,0.4204,0.268,-0.152,0.068,12.34,-65.80,0.1289,-0.9890,-0.1431,0.072,-0.012,0.042,-7.22,-98.05,0.06,0.08,0.02
4724,1468.28,1490.04,1480.37,-0.4827,0.7544,0.4021,-1.571,-0.320,-1.220,29.56,61.54,-0.2209,-0.9260,0.4207,-0.205,-0.198,0.160,12.33,-65.80,0.1289,-0.9863,-0.1377,-0.020,0.049,0.027,-7.23,-98.05,0.06,0.09,0.02
4749,1478.75,1499.71,1480.37,-0.4917,0.7566,0.4001,-1.876,-0.488,-2.029,29.55,61.51,-0.2212,-0.9253,0.4219,0.452,-0.045,-0.069,12.33,-65.78,0.1309,-0.9844,-0.1484,-0.035,0.049,-0.019,-7.23,-98.06,0.06,0.09,0.02
4763,1507.77,1535.97,1501.32,-0.4849,0.7551,0.4075,-1.510,-0.641,-1.434,29.54,61.49,-0.2244,-0.9255,0.4163,-0.602,-0.030,0.327,12.33,-65.79,0.1272,-0.9846,-0.1445,0.286,0.018,-0.095,-7.23,-98.06,0.06,0.09,0.02
4787,1459.41,1475.53,1451.36,-0.4905,0.7532,0.4082,0.155,0.565,0.551,29.56,61.50,-0.2244,-0.9358,0.4272,0.589,0.016,-0.222,12.33,-65.77,0.1274,-0.9919,-0.1389,-0.096,0.018,-0.095,-7.23,-98.06,0.06,0.09,0.02
4802,1484.40,1485.20,1472.31,-0.4858,0.7527,0.3997,1.315,-0.458,1.177,29.56,61.52,-0.2278,-0.9211,0.4192,-0.632,0.092,0.175,12.34,-65.77,0.1243,-0.9875,-0.1377,0.225,0.003,-0.065,-7.23,-98.06,0.06,0.09,0.02
4826,1471.50,1491.65,1493.26,-0.4888,0.7556,0.3962,1.193,0.840,0.933,29.58,61.57,-0.2224,-0.9299,0.4138,0.329,0.260,-0.329,12.35,-65.77,0.1289,-0.9941,-0.1362,-0.172,-0.043,0.042,-7.23,-98.05,0.06,0.09,0.02
4840,1469.08,1478.75,1496.48,-0.4849,0.7585,0.4026,0.582,-0.305,0.704,29.57,61.59,-0.2234,-0.9292,0.4185,-0.312,0.031,0.037,12.35,-65.77,0.1289,-0.9890,-0.1414,0.041,0.033,-0.065,-7.23,-98.06,0.06,0.09,0.02
4865,1485.20,1505.35,1467.47,-0.4814,0.7554,0.4033,-1.342,-0.229,-1.480,29.56,61.56,-0.2241,-0.9312,0.4097,0.100,-0.015,-0.146,12.35,-65.78,0.1287,-0.9917,-0.1328,0.041,0.003,0.011,-7.24,-98.05,0.07,0.09,0.02
4879,1470.70,1514.21,1480.37,-0.4890,0.7571,0.3992,-1.891,0.061,-1.968,29.57,61.55,-0.2209,-0.9326,0.4185,0.742,-0.122,-0.100,12.34,-65.77,0.1248,-0.9902,-0.1392,-0.218,0.094,0.057,-7.23,-98.05,0.07,0.09,0.02
4904,1481.98,1432.82,1447.33,-0.4875,0.7520,0.4077,-1.036,0.229,-1.312,29.58,61.52,-0.2195,-0.9280,0.4126,-0.281,-0.106,0.205,12.34,-65.78,0.1331,-0.9849,-0.1387,0.225,0.064,-0.034,-7.24,-98.04,0.06,0.08,0.02
4918,1497.29,1482.78,1440.07,-0.4861,0.7559,0.4053,-0.044,0.641,-1.037,29.58,61.53,-0.2239,-0.9338,0.4167,0.696,0.000,-0.176,12.34,-65.78,0.1277,-0.9900,-0.1409,-0.157,0.018,0.027,-7.24,-98.05,0.06,0.08,0.02
4942,1485.20,1488.42,1521.47,-0.4871,0.7551,0.4011,0.399,-0.488,0.688,29.57,61.55,-0.2251,-0.9272,0.4194,-0.648,0.031,0.373,12.34,-65.79,0.1257,-0.9839,-0.1433,0.179,0.003,0.088,-7.24,-98.05,0.06,0.08,0.02
4957,1490.04,1468.28,1419.93,-0.4883,0.7573,0.4009,0.246,0.367,0.398,29.58,61.56,-0.2224,-0.9282,0.4143,0.345,-0.061,-0.054,12.34,-65.79,0.1230,-0.9878,-0.1426,-0.203,-0.074,-0.004,-7.23,-98.05,0.06,0.08,0.02
4981,1496.48,1531.94,1495.68,-0.4897,0.7527,0.4028,-0.349,-0.351,-0.976,29.58,61.56,-0.2205,-0.9253,0.4180,-0.464,0.016,0.205,12.34,-65.80,0.1250,-0.9883,-0.1389,0.072,0.003,0.042,-7.23,-98.05,0.06,0.08,0.02
4995,1486.81,1520.66,1504.54,-0.4885,0.7551,0.4084,-0.929,0.519,-1.190,29.59,61.55,-0.2236,-0.9270,0.4194,-0.495,0.000,0.160,12.34,-65.80,0.1245,-0.9854,-0.1394,0.133,0.094,0.027,-7.23,-98.05,0.06,0.08,0.02
5020,1481.98,1457.80,1457.80,-0.4897,0.7529,0.4001,-0.273,-0.443,-0.411,29.58,61.55,-0.2214,-0.9324,0.4219,0.116,0.000,-0.069,12.34,-65.80,0.1294,-0.9858,-0.1401,0.072,0.018,0.027,-7.23,-98.05,0.06,0.08,0.02
5034,1499.71,1482.78,1440.07,-0.4883,0.7520,0.4041,0.200,0.031,0.398,29.59,61.56,-0.2241,-0.9294,0.4128,-0.602,-0.030,0.266,12.34,-65.81,0.1265,-0.9922,-0.1426,0.011,0.125,0.027,-7.23,-98.05,0.06,0.08,0.02
5058,1476.34,1486.81,1483.59,-0.4846,0.7583,0.3997,0.780,0.321,1.436,29.59,61.59,-0.2239,-0.9309,0.4170,-0.006,0.123,-0.207,12.34,-65.81,0.1260,-0.9873,-0.1443,-0.050,-0.043,-0.095,-7.23,-98.06,0.06,0.08,0.02
5073,1479.56,1449.74,1498.90,-0.4856,0.7600,0.4014,0.613,0.031,0.398,29.59,61.61,-0.2268,-0.9290,0.4182,-0.678,0.046,0.175,12.35,-65.82,0.1238,-0.9846,-0.1436,0.041,0.033,0.118,-7.23,-98.06,0.06,0.07,0.02
5097,1482.78,1512.60,1478.75,-0.4854,0.7578,0.4043,-0.884,0.489,-1.113,29.60,61.59,-0.2192,-0.9321,0.4194,0.955,-0.106,-0.146,12.34,-65.80,0.1235,-0.9890,-0.1472,0.011,0.079,0.011,-7.22,-98.07,0.06,0.07,0.02
5111,1495.68,1508.57,1495.68,-0.4885,0.7520,0.3999,-1.464,0.076,-1.235,29.60,61.58,-0.2219,-0.9287,0.4150,0.482,-0.137,0.251,12.34,-65.79,0.1267,-0.9861,-0.1401,0.087,0.094,-0.050,-7.22,-98.07,0.05,0.07,0.02
5136,1475.53,1462.64,1485.20,-0.4895,0.7573,0.4004,-2.105,-0.015,-1.739,29.61,61.54,-0.2209,-0.9282,0.4094,0.391,-0.122,-0.115,12.33,-65.79,0.1282,-0.9863,-0.1323,-0.157,-0.089,-0.034,-7.23,-98.06,0.05,0.07,0.02
5150,1498.10,1487.62,1465.86,-0.4858,0.7532,0.4075,-1.220,-0.076,-1.220,29.61,61.52,-0.2209,-0.9280,0.4241,-0.235,0.123,-0.100,12.33,-65.79,0.1274,-0.9871,-0.1377,0.087,-0.028,0.027,-7.23,-98.06,0.05,0.07,0.02
5175,1465.86,1482.78,1496.48,-0.4822,0.7542,0.4060,0.765,-0.091,0.505,29.60,61.55,-0.2231,-0.9326,0.4148,-0.526,0.291,-0.192,12.34,-65.80,0.1240,-0.9934,-0.1394,-0.233,-0.104,0.042,-7.23,-98.06,0.05,0.07,0.02
5189,1467.47,1466.67,1471.50,-0.4910,0.7573,0.4055,1.300,0.504,1.131,29.61,61.57,-0.2207,-0.9331,0.4167,0.055,0.046,-0.207,12.34,-65.81,0.1238,-0.9934,-0.1467,0.041,-0.058,-0.019,-7.22,-98.07,0.05,0.07,0.02
5213,1477.95,1540.00,1514.21,-0.4895,0.7568,0.3997,1.361,0.153,1.177,29.62,61.62,-0.2268,-0.9250,0.4160,-0.159,-0.122,0.098,12.34,-65.81,0.1226,-0.9871,-0.1401,-0.004,-0.043,-0.050,-7.22,-98.07,0.04,0.07,0.02
5228,1473.92,1527.11,1499.71,-0.4844,0.7561,0.4036,0.521,0.626,0.123,29.62,61.63,-0.2258,-0.9336,0.4131,0.955,0.031,-0.421,12.34,-65.80,0.1245,-0.9890,-0.1426,-0.310,-0.104,-0.019,-7.22,-98.08,0.04,0.06,0.02
5252,1495.68,1461.03,1470.70,-0.4834,0.7537,0.3989,-1.662,-0.168,-1.373,29.62,61.60,-0.2217,-0.9285,0.4172,-0.526,-0.091,0.343,12.34,-65.82,0.1277,-0.9817,-0.1370,0.347,0.003,-0.034,-7.22,-98.07,0.04,0.06,0.02
5266,1491.65,1491.65,1452.16,-0.4890,0.7568,0.4094,-2.273,0.382,-1.846,29.62,61.57,-0.2256,-0.9260,0.4180,0.711,0.046,-0.283,12.34,-65.80,0.1287,-0.9893,-0.1375,-0.279,-0.074,-0.050,-7.22,-98.07,0.04,0.06,0.02
5291,1472.31,1469.08,1464.25,-0.4878,0.7502,0.4080,-2.120,-0.366,-1.892,29.61,61.51,-0.2209,-0.9290,0.4207,-0.602,0.046,0.297,12.34,-65.81,0.1265,-0.9856,-0.1362,0.209,0.003,0.072,-7.22,-98.06,0.04,0.06,0.02
5305,1462.64,1453.77,1456.19,-0.4912,0.7534,0.4038,-1.449,-0.336,-1.922,29.62,61.50,-0.2253,-0.9324,0.4131,0.024,-0.061,0.022,12.34,-65.82,0.1270,-0.9902,-0.1362,-0.004,-0.012,0.072,-7.22,-98.05,0.04,0.06,0.02
5330,1488.42,1534.36,1497.29,-0.4905,0.7563,0.4080,0.628,-0.519,0.307,29.60,61.52,-0.2214,-0.9272,0.4177,-0.205,0.123,0.205,12.35,-65.82,0.1296,-0.9890,-0.1365,0.102,0.003,-0.004,-7.23,-98.05,0.04,0.06,0.02
5344,1498.90,1502.93,1484.40,-0.4846,0.7500,0.4011,1.025,0.183,1.207,29.61,61.54,-0.2251,-0.9277,0.4148,-0.403,0.138,0.129,12.35,-65.83,0.1279,-0.9885,-0.1401,0.026,0.049,-0.019,-7.23,-98.05,0.04,0.06,0.02
5369,1510.18,1457.00,1477.95,-0.4934,0.7524,0.4072,0.857,0.305,1.192,29.62,61.56,-0.2222,-0.9312,0.4241,0.116,0.016,-0.100,12.35,-65.82,0.1289,-0.9871,-0.1433,0.087,0.033,-0.065,-7.23,-98.05,0.04,0.05,0.02
5383,1499.71,1506.96,1454.58,-0.4868,0.7539,0.3933,0.063,0.565,0.307,29.63,61.58,-0.2183,-0.9280,0.4197,-0.449,0.031,0.297,12.34,-65.82,0.1235,-0.9866,-0.1448,0.194,-0.043,-0.095,-7.23,-98.05,0.03,0.05,0.02
5407,1469.08,1467.47,1480.37,-0.4900,0.7544,0.4021,-0.899,-0.122,-1.357,29.64,61.56,-0.2212,-0.9331,0.4180,0.543,0.016,-0.161,12.34,-65.81,0.1274,-0.9897,-0.1377,-0.127,0.140,-0.141,-7.23,-98.05,0.03,0.05,0.02
5422,1481.17,1459.41,1477.95,-0.4858,0.7554,0.4009,-1.220,0.244,-1.174,29.64,61.56,-0.2209,-0.9258,0.4099,-0.602,0.107,0.175,12.34,-65.83,0.1260,-0.9890,-0.1416,0.072,0.018,0.103,-7.22,-98.05,0.03,0.05,0.02
5446,1487.62,1527.11,1501.32,-0.4919,0.7581,0.4092,-0.609,0.168,-1.403,29.64,61.54,-0.2249,-0.9331,0.4216,0.513,0.168,-0.390,12.35,-65.81,0.1257,-0.9888,-0.1367,-0.264,-0.089,0.027,-7.23,-98.06,0.03,0.04,0.02
5460,1488.42,1519.85,1489.23,-0.4863,0.7583,0.4038,0.139,-0.107,-0.243,29.64,61.55,-0.2197,-0.9275,0.4248,0.177,-0.030,0.053,12.34,-65.80,0.1277,-0.9878,-0.1394,0.163,0.064,-0.034,-7.23,-98.05,0.02,0.04,0.02
5485,1482.78,1481.17,1469.89,-0.4897,0.7556,0.4048,-0.151,-0.030,-0.319,29.64,61.56,-0.2219,-0.9294,0.4180,0.742,0.031,-0.192,12.34,-65.78,0.1270,-0.9883,-0.1399,-0.249,-0.119,0.027,-7.23,-98.06,0.02,0.04,0.02
5499,1500.51,1535.16,1465.86,-0.4871,0.7593,0.4058,-0.212,-0.183,-0.243,29.64,61.56,-0.2214,-0.9331,0.4211,0.681,-0.076,-0.024,12.34,-65.77,0.1299,-0.9917,-0.1443,0.118,-0.043,-0.065,-7.23,-98.06,0.02,0.04,0.02
5523,1469.08,1483.59,1497.29,-0.4858,0.7554,0.4004,-0.929,0.412,-1.098,29.65,61.55,-0.2253,-0.9304,0.4170,0.055,0.061,0.022,12.34,-65.77,0.1250,-0.9871,-0.1440,-0.096,-0.028,0.042,-7.23,-98.07,0.02,0.04,0.02
5538,1478.75,1443.30,1449.74,-0.4895,0.7598,0.4058,-0.884,0.183,-0.732,29.65,61.54,-0.2217,-0.9355,0.4185,0.513,0.016,-0.451,12.34,-65.77,0.1272,-0.9885,-0.1409,-0.203,-0.012,-0.004,-7.23,-98.07,0.02,0.03,0.02
5562,1486.81,1519.05,1480.37,-0.4856,0.7542,0.4087,-1.128,0.733,-0.869,29.66,61.52,-0.2224,-0.9238,0.4199,-0.693,-0.061,0.373,12.34,-65.78,0.1270,-0.9893,-0.1392,0.102,0.125,-0.004,-7.23,-98.07,0.01,0.03,0.02
5576,1469.08,1467.47,1486.81,-0.4885,0.7546,0.3997,-0.639,0.138,-0.258,29.67,61.52,-0.2212,-0.9268,0.4207,0.589,-0.015,-0.314,12.34,-65.77,0.1257,-0.9854,-0.1326,-0.233,0.033,-0.126,-7.23,-98.06,0.01,0.03,0.02
5601,1475.53,1495.68,1439.27,-0.4890,0.7556,0.4036,0.582,-0.305,0.505,29.66,61.54,-0.2224,-0.9255,0.4160,-0.846,0.153,0.266,12.34,-65.79,0.1309,-0.9883,-0.1345,0.118,0.049,-0.019,-7.23,-98.06,0.01,0.02,0.02
5615,1473.92,1519.85,1457.00,-0.4858,0.7537,0.4001,0.887,0.168,0.627,29.66,61.56,-0.2214,-0.9290,0.4197,-0.129,0.107,-0.024,12.34,-65.79,0.1299,-0.9893,-0.1389,-0.081,-0.028,-0.019,-7.24,-98.06,0.01,0.02,0.02
5640,1481.98,1456.19,1474.73,-0.4849,0.7539,0.4041,0.261,0.534,0.047,29.67,61.57,-0.2249,-0.9270,0.4160,-0.266,-0.076,0.175,12.34,-65.80,0.1265,-0.9883,-0.1406,0.011,-0.012,-0.065,-7.24,-98.06,0.00,0.02,0.02
5654,1501.32,1448.94,1444.91,-0.4844,0.7571,0.4053,-0.029,-0.046,-0.212,29.67,61.58,-0.2224,-0.9312,0.4143,0.070,-0.183,0.037,12.34,-65.80,0.1228,-0.9885,-0.1384,-0.050,0.064,0.057,-7.23,-98.05,-0.00,0.02,0.02
5679,1498.10,1577.07,1506.15,-0.4802,0.7529,0.4045,-1.326,-0.443,-2.106,29.65,61.55,-0.2231,-0.9312,0.4146,0.177,-0.198,0.114,12.33,-65.80,0.1289,-0.9858,-0.1436,-0.096,0.094,-0.218,-7.23,-98.06,-0.00,0.01,0.02
5693,1457.00,1491.65,1484.40,-0.4841,0.7549,0.4006,-1.998,-0.168,-2.014,29.64,61.53,-0.2290,-0.9309,0.4189,-0.083,-0.091,0.205,12.34,-65.80,0.1294,-0.9883,-0.1313,0.102,-0.012,-0.019,-7.24,-98.05,-0.00,0.01,0.02
5717,1508.57,1498.10,1457.00,-0.4893,0.7546,0.4099,-1.723,-0.351,-1.449,29.64,61.49,-0.2214,-0.9312,0.4229,0.391,0.016,-0.115,12.34,-65.79,0.1292,-0.9880,-0.1411,-0.035,-0.043,-0.019,-7.24,-98.05,-0.00,0.01,0.02
5732,1502.93,1508.57,1446.52,-0.4888,0.7537,0.4028,-0.960,0.092,-0.869,29.64,61.48,-0.2183,-0.9294,0.4204,-0.419,-0.106,0.327,12.33,-65.79,0.1250,-0.9844,-0.1360,0.225,-0.012,-0.004,-7.24,-98.05,-0.00,0.01,0.02
5756,1468.28,1449.74,1483.59,-0.4854,0.7537,0.4045,0.887,-0.030,0.902,29.64,61.51,-0.2229,-0.9324,0.4177,0.406,-0.091,-0.161,12.33,-65.78,0.1260,-0.9917,-0.1360,-0.203,0.064,-0.141,-7.24,-98.05,-0.00,0.01,0.02
5770,1466.67,1460.22,1461.03,-0.4832,0.7559,0.4065,1.071,0.489,1.070,29.64,61.53,-0.2229,-0.9272,0.4182,-0.373,-0.030,0.160,12.33,-65.79,0.1267,-0.9856,-0.1423,0.163,0.079,-0.080,-7.23,-98.05,-0.01,0.01,0.02
5795,1482.78,1534.36,1493.26,-0.4863,0.7554,0.4031,0.887,-0.137,0.627,29.64,61.56,-0.2244,-0.9326,0.4158,0.085,0.092,-0.161,12.33,-65.79,0.1272,-0.9895,-0.1431,-0.157,0.003,0.027,-7.23,-98.05,-0.01,0.01,0.02
5809,1469.08,1503.74,1496.48,-0.4851,0.7549,0.4038,-0.013,-0.488,-0.014,29.63,61.56,-0.2231,-0.9312,0.4236,0.131,-0.030,-0.085,12.33,-65.78,0.1270,-0.9875,-0.1343,-0.004,-0.012,0.027,-7.24,-98.05,-0.01,0.01,0.02
5834,1494.87,1495.68,1477.14,-0.4893,0.7585,0.4014,-1.494,-0.366,-1.602,29.62,61.54,-0.2219,-0.9368,0.4141,0.360,-0.076,-0.024,12.33,-65.78,0.1274,-0.9910,-0.1318,-0.004,0.003,0.057,-7.24,-98.04,-0.01,0.01,0.02
5848,1490.84,1518.24,1457.80,-0.4924,0.7598,0.3931,-1.662,-0.382,-2.075,29.62,61.54,-0.2231,-0.9343,0.4221,0.558,-0.091,-0.176,12.32,-65.77,0.1252,-0.9900,-0.1421,-0.096,-0.043,-0.034,-7.23,-98.04,-0.00,0.01,0.02
5872,1456.19,1449.74,1449.74,-0.4885,0.7498,0.4084,-1.510,-0.336,-1.128,29.62,61.50,-0.2236,-0.9309,0.4133,-0.281,-0.045,0.175,12.32,-65.78,0.1260,-0.9871,-0.1401,0.057,-0.012,-0.034,-7.23,-98.04,-0.00,0.01,0.02
5887,1483.59,1453.77,1457.00,-0.4875,0.7544,0.4062,-0.197,0.473,-0.106,29.62,61.50,-0.2273,-0.9329,0.4192,0.696,-0.045,-0.253,12.33,-65.77,0.1270,-0.9883,-0.1440,-0.249,-0.058,0.027,-7.24,-98.05,-0.00,0.01,0.02
5911,1486.01,1533.55,1505.35,-0.4866,0.7532,0.4041,0.506,-0.198,0.230,29.62,61.52,-0.2224,-0.9292,0.4082,-0.571,-0.045,0.190,12.33,-65.80,0.1272,-0.9863,-0.1416,0.209,0.003,-0.004,-7.24,-98.05,-0.00,0.02,0.02
5926,1509.38,1491.65,1486.81,-0.4890,0.7544,0.4041,0.063,-0.458,0.169,29.61,61.53,-0.2195,-0.9338,0.4209,0.421,0.046,-0.283,12.32,-65.79,0.1284,-0.9866,-0.1453,-0.295,-0.028,0.027,-7.24,-98.06,-0.00,0.02,0.02
5950,1503.74,1512.60,1464.25,-0.4873,0.7576,0.3972,-0.242,-0.076,-0.319,29.61,61.54,-0.2246,-0.9292,0.4126,-0.800,0.199,0.190,12.33,-65.81,0.1270,-0.9885,-0.1418,0.072,0.155,-0.019,-7.23,-98.06,-0.00,0.02,0.02
5964,1501.32,1512.60,1478.75,-0.4814,0.7573,0.4092,-0.502,-0.091,-0.411,29.60,61.53,-0.2241,-0.9272,0.4167,0.299,-0.015,-0.085,12.33,-65.81,0.1299,-0.9873,-0.1414,0.072,-0.028,0.088,-7.24,-98.06,-0.00,0.02,0.02
5989,1522.27,1444.10,1469.89,-0.4807,0.7539,0.4036,-0.334,-0.244,-0.457,29.59,61.53,-0.2224,-0.9263,0.4128,0.009,-0.152,0.266,12.33,-65.81,0.1245,-0.9844,-0.1338,0.057,-0.074,0.118,-7.24,-98.05,0.00,0.02,0.02
6003,1486.01,1465.86,1452.97,-0.4866,0.7551,0.4014,-0.746,0.046,-0.319,29.60,61.53,-0.2239,-0.9277,0.4148,0.085,-0.076,-0.054,12.33,-65.81,0.1233,-0.9873,-0.1370,-0.249,-0.089,-0.126,-7.24,-98.05,0.00,0.02,0.02
6028,1467.47,1473.92,1506.96,-0.4895,0.7627,0.4050,-0.823,0.382,-0.793,29.60,61.52,-0.2229,-0.9250,0.4175,-0.419,0.138,0.053,12.34,-65.82,0.1299,-0.9883,-0.1360,0.072,0.003,0.042,-7.24,-98.05,0.01,0.02,0.02
6042,1454.58,1482.78,1472.31,-0.4846,0.7546,0.4001,-0.395,-0.107,-0.472,29.60,61.52,-0.2236,-0.9287,0.4138,-0.724,0.123,0.037,12.34,-65.83,0.1262,-0.9861,-0.1389,0.072,-0.043,-0.065,-7.24,-98.05,0.01,0.03,0.02
6066,1496.48,1486.81,1411.06,-0.4873,0.7605,0.4097,-0.273,0.550,-0.243,29.61,61.52,-0.2195,-0.9304,0.4170,0.268,-0.061,-0.039,12.33,-65.83,0.1299,-0.9839,-0.1426,0.041,0.079,-0.065,-7.24,-98.05,0.01,0.03,0.02
6081,1525.49,1529.52,1488.42,-0.4873,0.7566,0.4009,0.277,-0.336,0.475,29.61,61.54,-0.2209,-0.9265,0.4155,-0.297,-0.137,0.343,12.33,-65.83,0.1270,-0.9873,-0.1431,0.194,0.064,0.057,-7.24,-98.05,0.01,0.03,0.02
6105,1484.40,1423.96,1452.97,-0.4866,0.7566,0.4043,0.048,0.168,0.413,29.61,61.54,-0.2209,-0.9299,0.4238,0.986,0.016,-0.207,12.33,-65.80,0.1296,-0.9912,-0.1414,-0.020,0.079,0.042,-7.24,-98.05,0.01,0.03,0.02
6119,1486.01,1444.10,1457.00,-0.4844,0.7539,0.4043,-0.258,-0.443,-0.396,29.60,61.55,-0.2217,-0.9270,0.4182,-0.174,-0.122,0.160,12.33,-65.80,0.1260,-0.9875,-0.1362,0.102,-0.074,-0.004,-7.24,-98.05,0.01,0.03,0.02
6144,1482.78,1507.77,1529.52,-0.4875,0.7581,0.4019,-2.319,-0.840,-2.014,29.58,61.50,-0.2239,-0.9292,0.4209,0.574,-0.015,-0.176,12.33,-65.79,0.1272,-0.9929,-0.1401,-0.279,-0.058,-0.004,-7.24,-98.05,0.01,0.03,0.02
6158,1457.00,1448.94,1482.78,-0.4866,0.7573,0.4084,-1.464,-0.519,-2.212,29.57,61.48,-0.2231,-0.9304,0.4224,0.223,0.046,-0.115,12.33,-65.78,0.1245,-0.9919,-0.1438,-0.081,0.064,-0.157,-7.24,-98.06,0.01,0.03,0.02
6182,1472.31,1520.66,1356.26,-0.4927,0.7563,0.4048,-0.578,-0.168,-0.487,29.57,61.48,-0.2190,-0.9292,0.4150,-0.235,0.184,0.053,12.33,-65.79,0.1257,-0.9868,-0.1436,-0.035,-0.012,-0.034,-7.24,-98.06,0.02,0.03,0.02
6197,1504.54,1534.36,1508.57,-0.4888,0.7566,0.4048,0.811,-0.107,0.551,29.58,61.50,-0.2224,-0.9292,0.4216,0.299,0.092,-0.268,12.33,-65.78,0.1257,-0.9888,-0.1404,0.011,-0.074,-0.065,-7.24,-98.06,0.02,0.04,0.02
6221,1485.20,1454.58,1467.47,-0.4871,0.7556,0.4004,1.315,0.260,2.215,29.58,61.54,-0.2214,-0.9268,0.4172,-0.403,-0.183,0.129,12.32,-65.79,0.1277,-0.9895,-0.1387,0.011,-0.058,-0.034,-7.24,-98.06,0.02,0.04,0.02
6235,1494.07,1471.50,1470.70,-0.4849,0.7617,0.3979,1.544,0.275,1.635,29.58,61.58,-0.2214,-0.9270,0.4148,0.757,-0.061,-0.360,12.32,-65.78,0.1279,-0.9871,-0.1418,-0.127,0.049,-0.126,-7.24,-98.06,0.02,0.04,0.02
6260,1484.40,1499.71,1482.78,-0.4839,0.7573,0.4019,-1.220,-0.229,-1.617,29.58,61.56,-0.2217,-0.9304,0.4160,-0.373,-0.076,0.266,12.32,-65.79,0.1277,-0.9880,-0.1355,-0.157,0.064,0.072,-7.24,-98.06,0.02,0.04,0.02
6274,1473.92,1478.75,1469.89,-0.4900,0.7590,0.4016,-3.067,0.214,-2.533,29.58,61.53,-0.2207,-0.9297,0.4182,0.497,-0.168,-0.222,12.31,-65.79,0.1255,-0.9890,-0.1438,-0.157,0.125,-0.050,-7.24,-98.07,0.02,0.04,0.02
6299,1506.15,1516.63,1473.92,-0.4854,0.7559,0.4023,-3.006,-0.534,-3.037,29.57,61.46,-0.2241,-0.9307,0.4219,-0.373,-0.030,0.297,12.32,-65.79,0.1299,-0.9839,-0.1382,0.057,0.125,0.011,-7.24,-98.07,0.02,0.04,0.02
6313,1486.81,1542.42,1512.60,-0.4885,0.7517,0.4053,-2.120,0.321,-2.136,29.58,61.44,-0.2229,-0.9265,0.4185,-0.022,-0.030,-0.008,12.32,-65.79,0.1270,-0.9871,-0.1389,-0.081,0.003,-0.004,-7.24,-98.07,0.02,0.05,0.02
6337,1472.31,1447.33,1471.50,-0.4844,0.7554,0.4055,1.452,-0.061,1.207,29.57,61.48,-0.2168,-0.9292,0.4231,-0.220,0.061,0.037,12.31,-65.79,0.1255,-0.9888,-0.1399,0.072,0.094,-0.004,-7.24,-98.06,0.02,0.05,0.02
6352,1422.34,1472.31,1465.86,-0.4863,0.7537,0.4041,1.971,0.122,1.879,29.58,61.51,-0.2229,-0.9280,0.4226,-0.861,0.061,0.266,12.31,-65.80,0.1265,-0.9863,-0.1409,0.102,0.018,0.118,-7.24,-98.06,0.02,0.05,0.02
6376,1487.62,1510.99,1482.78,-0.4866,0.7578,0.3997,1.712,0.183,1.574,29.58,61.57,-0.2214,-0.9314,0.4124,0.100,0.031,-0.161,12.31,-65.80,0.1228,-0.9910,-0.1399,-0.127,-0.012,-0.004,-7.23,-98.07,0.02,0.05,0.03
6390,1449.74,1447.33,1465.86,-0.4895,0.7559,0.4062,-0.090,-0.229,-0.075,29.58,61.57,-0.2219,-0.9238,0.4182,-0.556,0.016,0.297,12.31,-65.80,0.1245,-0.9885,-0.1384,0.041,0.018,-0.019,-7.23,-98.06,0.03,0.05,0.03
6415,1508.57,1548.06,1469.08,-0.4846,0.7598,0.4038,-2.273,-0.061,-2.121,29.57,61.52,-0.2231,-0.9287,0.4216,0.879,-0.091,-0.161,12.31,-65.78,0.1260,-0.9946,-0.1423,-0.157,-0.135,-0.034,-7.23,-98.07,0.03,0.05,0.03
6429,1496.48,1537.58,1501.32,-0.4822,0.7600,0.4072,-2.105,-0.626,-2.121,29.56,61.50,-0.2227,-0.9253,0.4185,-0.144,0.000,0.297,12.31,-65.78,0.1279,-0.9871,-0.1362,0.240,0.018,0.134,-7.23,-98.06,0.03,0.06,0.03
6454,1475.53,1482.78,1456.19,-0.4907,0.7566,0.4070,-0.975,-0.153,-1.464,29.56,61.48,-0.2258,-0.9312,0.4172,0.635,-0.061,-0.283,12.31,-65.76,0.1287,-0.9924,-0.1411,-0.279,0.003,0.042,-7.23,-98.07,0.03,0.06,0.03
6468,1496.48,1456.19,1456.19,-0.4863,0.7559,0.4089,0.246,0.076,-0.472,29.56,61.49,-0.2183,-0.9304,0.4211,0.177,-0.061,-0.054,12.31,-65.76,0.1287,-0.9871,-0.1404,0.118,-0.043,-0.065,-7.24,-98.07,0.03,0.06,0.03
6492,1462.64,1482.78,1490.04,-0.4905,0.7590,0.4026,0.658,0.550,0.841,29.57,61.51,-0.2209,-0.9302,0.4146,0.314,-0.091,-0.115,12.30,-65.76,0.1304,-0.9900,-0.1392,-0.188,0.049,0.011,-7.24,-98.07,0.03,0.06,0.03
6507,1482.78,1465.05,1470.70,-0.4878,0.7576,0.4036,-0.120,0.504,0.276,29.58,61.52,-0.2241,-0.9331,0.4189,0.650,0.123,-0.268,12.31,-65.75,0.1277,-0.9883,-0.1406,-0.157,0.003,0.011,-7.24,-98.07,0.03,0.06,0.03
6531,1497.29,1521.47,1497.29,-0.4861,0.7568,0.3970,-0.380,-0.259,-0.503,29.58,61.53,-0.2205,-0.9248,0.4128,-0.617,0.199,0.175,12.31,-65.77,0.1243,-0.9863,-0.1340,-0.035,0.110,0.118,-7.23,-98.07,0.03,0.06,0.03
6546,1488.42,1521.47,1491.65,-0.4888,0.7576,0.4036,-0.700,0.458,-0.991,29.59,61.53,-0.2241,-0.9314,0.4211,0.620,0.107,-0.283,12.31,-65.76,0.1255,-0.9915,-0.1426,-0.035,-0.089,-0.004,-7.23,-98.07,0.03,0.06,0.03
6570,1481.98,1465.86,1451.36,-0.4839,0.7529,0.4016,-0.349,-0.046,-0.793,29.58,61.53,-0.2214,-0.9297,0.4187,-0.632,0.000,0.221,12.31,-65.77,0.1267,-0.9883,-0.1433,0.225,0.049,-0.034,-7.23,-98.07,0.03,0.06,0.03
6584,1494.87,1507.77,1447.33,-0.4866,0.7576,0.4031,-0.395,0.244,-0.701,29.59,61.53,-0.2224,-0.9333,0.4199,0.650,0.031,-0.329,12.31,-65.76,0.1238,-0.9900,-0.1384,-0.203,-0.074,-0.019,-7.23,-98.07,0.03,0.06,0.03
6609,1468.28,1477.14,1482.78,-0.4854,0.7524,0.4016,-0.212,-0.137,-0.182,29.58,61.53,-0.2234,-0.9292,0.4138,-0.587,-0.152,0.358,12.31,-65.78,0.1245,-0.9885,-0.1421,0.362,0.094,0.057,-7.23,-98.06,0.03,0.06,0.04
6623,1472.31,1477.95,1477.14,-0.4900,0.7563,0.4019,-0.716,-0.229,-0.167,29.58,61.53,-0.2258,-0.9290,0.4109,0.085,-0.061,-0.039,12.31,-65.79,0.1221,-0.9895,-0.1348,-0.188,0.079,0.027,-7.22,-98.06,0.03,0.06,0.04
6648,1494.07,1541.61,1486.81,-0.4846,0.7507,0.4102,-0.655,-0.168,-0.197,29.58,61.51,-0.2188,-0.9302,0.4238,-0.129,-0.106,0.144,12.31,-65.78,0.1282,-0.9878,-0.1445,0.286,0.094,0.088,-7.22,-98.06,0.03,0.06,0.04
6662,1495.68,1519.85,1496.48,-0.4834,0.7585,0.4045,-0.823,0.015,0.062,29.58,61.51,-0.2222,-0.9258,0.4158,-0.327,0.031,0.221,12.31,-65.79,0.1262,-0.9851,-0.1418,0.057,-0.028,-0.004,-7.22,-98.06,0.03,0.07,0.04
6687,1472.31,1471.50,1449.74,-0.4885,0.7588,0.4077,-0.410,0.199,-0.503,29.58,61.50,-0.2217,-0.9268,0.4167,0.268,0.000,-0.161,12.31,-65.78,0.1272,-0.9900,-0.1426,-0.050,0.049,0.057,-7.22,-98.06,0.03,0.07,0.04
6701,1501.32,1465.05,1471.50,-0.4915,0.7542,0.3967,0.155,-0.412,-0.823,29.58,61.52,-0.2251,-0.9268,0.4138,-0.907,-0.137,0.327,12.31,-65.80,0.1248,-0.9851,-0.1389,0.133,-0.028,0.011,-7.22,-98.06,0.03,0.07,0.04
6725,1490.84,1475.53,1477.14,-0.4863,0.7546,0.3972,-0.181,-0.443,-0.457,29.57,61.53,-0.2258,-0.9319,0.4189,0.772,-0.030,-0.360,12.31,-65.78,0.1260,-0.9912,-0.1462,-0.020,-0.028,-0.050,-7.22,-98.07,0.03,0.07,0.04
6740,1471.50,1444.10,1471.50,-0.4905,0.7554,0.4028,-0.273,-0.183,0.215,29.58,61.54,-0.2229,-0.9258,0.4141,-0.495,0.000,0.251,12.31,-65.79,0.1274,-0.9861,-0.1428,0.225,-0.012,-0.050,-7.22,-98.07,0.03,0.07,0.04
6764,1499.71,1528.72,1498.10,-0.4910,0.7551,0.4023,-0.670,0.351,-0.609,29.59,61.53,-0.2253,-0.9287,0.4182,0.681,-0.061,-0.237,12.32,-65.77,0.1292,-0.9875,-0.1394,-0.111,0.003,0.027,-7.22,-98.07,0.03,0.07,0.04
6778,1469.08,1522.27,1496.48,-0.4893,0.7542,0.3994,-0.777,-0.427,-0.472,29.59,61.53,-0.2207,-0.9275,0.4192,-0.098,-0.061,0.053,12.31,-65.77,0.1311,-0.9878,-0.1401,-0.035,-0.028,0.057,-7.23,-98.07,0.03,0.07,0.04
6803,1498.10,1467.47,1451.36,-0.4854,0.7534,0.4041,-1.204,0.076,-0.670,29.59,61.51,-0.2249,-0.9324,0.4180,0.131,0.138,-0.100,12.32,-65.77,0.1301,-0.9873,-0.1379,-0.157,0.125,-0.019,-7.23,-98.07,0.03,0.07,0.04
6817,1506.96,1483.59,1456.19,-0.4880,0.7571,0.4048,-1.464,-0.214,-0.716,29.59,61.49,-0.2212,-0.9263,0.4133,0.161,-0.061,-0.085,12.32,-65.77,0.1265,-0.9854,-0.1389,0.072,0.003,0.027,-7.23,-98.07,0.03,0.07,0.04
6841,1474.73,1478.75,1475.53,-0.4907,0.7517,0.4036,-0.075,-0.229,-0.258,29.59,61.50,-0.2209,-0.9297,0.4177,-0.281,0.092,0.053,12.32,-65.78,0.1265,-0.9871,-0.1316,0.026,0.033,0.134,-7.23,-98.06,0.03,0.07,0.04
6856,1478.75,1467.47,1459.41,-0.4871,0.7556,0.4065,0.887,0.305,0.444,29.59,61.51,-0.2256,-0.9319,0.4141,0.268,0.077,-0.283,12.32,-65.78,0.1260,-0.9910,-0.1377,0.011,0.079,0.027,-7.23,-98.06,0.02,0.07,0.04
6880,1486.81,1522.27,1479.56,-0.4885,0.7524,0.4001,1.834,-0.229,1.039,29.59,61.57,-0.2234,-0.9229,0.4092,-0.846,-0.030,0.251,12.32,-65.81,0.1240,-0.9912,-0.1326,0.133,0.033,-0.019,-7.22,-98.05,0.03,0.07,0.04
6895,1469.89,1504.54,1495.68,-0.4861,0.7590,0.4016,1.162,-0.015,1.070,29.59,61.59,-0.2229,-0.9302,0.4146,0.452,0.016,-0.405,12.32,-65.81,0.1282,-0.9885,-0.1355,-0.279,-0.028,0.042,-7.22,-98.05,0.03,0.07,0.04
6919,1470.70,1461.83,1457.00,-0.4778,0.7603,0.3962,-0.578,0.504,-0.487,29.59,61.60,-0.2258,-0.9255,0.4153,-0.663,-0.106,0.190,12.33,-65.82,0.1267,-0.9822,-0.1299,0.072,0.003,0.011,-7.23,-98.03,0.03,0.07,0.04
6933,1502.93,1509.38,1480.37,-0.4841,0.7568,0.4011,-1.143,0.305,-1.434,29.59,61.59,-0.2261,-0.9275,0.4189,0.620,-0.106,-0.436,12.33,-65.81,0.1248,-0.9836,-0.1396,-0.692,0.018,0.057,-7.22,-98.04,0.03,0.07,0.04
6958,1483.59,1501.32,1479.56,-0.4995,0.7625,0.4021,-9.907,-0.122,-8.258,29.60,61.36,-0.2090,-0.9321,0.4265,0.452,-0.290,-0.008,12.31,-65.79,0.1252,-0.9900,-0.1589,-0.951,-0.562,0.256,-7.24,-98.09,0.02,0.07,0.04
6972,1493.26,1457.00,1474.73,-0.4939,0.7551,0.4070,-11.326,-0.427,-9.846,29.60,61.21,-0.2205,-0.9316,0.4165,0.772,-0.702,0.679,12.29,-65.78,0.1338,-0.9846,-0.1394,2.240,0.583,-0.141,-7.24,-98.06,0.02,0.06,0.04
6997,1495.68,1523.88,1500.51,-0.4873,0.7422,0.4185,-3.311,-0.962,-3.113,29.58,61.12,-0.2266,-0.9236,0.4255,2.039,-0.412,0.327,12.29,-65.72,0.1379,-0.9783,-0.1506,0.820,0.018,-0.004,-7.25,-98.05,0.02,0.06,0.04
7011,1471.50,1507.77,1506.15,-0.4890,0.7434,0.4153,5.009,0.458,5.803,29.59,61.18,-0.2271,-0.9248,0.4285,-0.892,0.184,0.358,12.30,-65.72,0.1355,-0.9792,-0.1255,0.850,0.552,-0.248,-7.25,-98.02,0.02,0.06,0.04
7036,1477.14,1475.53,1442.49,-0.4851,0.7546,0.4070,14.414,1.878,15.101,29.64,61.54,-0.2253,-0.9243,0.4148,-2.785,0.962,-0.482,12.33,-65.79,0.1296,-0.9897,-0.1421,0.835,0.079,0.149,-7.25,-98.01,0.02,0.06,0.04
7050,1462.64,1498.90,1458.61,-0.4834,0.7637,0.3977,11.238,1.725,11.421,29.66,61.71,-0.2195,-0.9314,0.4126,-2.693,0.794,-0.054,12.33,-65.84,0.1267,-0.9851,-0.1406,-0.859,-0.287,0.134,-7.26,-98.02,0.01,0.05,0.04
7075,1474.73,1494.07,1481.98,-0.4878,0.7649,0.3918,-3.952,-0.153,-4.365,29.65,61.64,-0.2134,-0.9336,0.4106,0.665,0.214,-0.375,12.33,-65.83,0.1238,-0.9937,-0.1414,0.499,0.110,0.027,-7.25,-98.01,0.01,0.04,0.03
7089,1494.07,1423.15,1449.74,-0.4893,0.7625,0.3940,-10.655,-1.114,-10.045,29.64,61.51,-0.2156,-0.9309,0.4150,-0.678,0.168,0.098,12.32,-65.84,0.1184,-0.9875,-0.1460,-0.600,-0.028,-0.004,-7.24,-98.03,0.01,0.04,0.03
7113,1487.62,1540.00,1494.07,-0.4951,0.7559,0.3989,-7.082,-1.771,-6.609,29.60,61.36,-0.2256,-0.9316,0.4099,-0.083,0.107,-0.054,12.33,-65.85,0.1211,-0.9890,-0.1365,0.805,0.079,-0.095,-7.23,-98.00,0.01,0.04,0.03
7128,1473.92,1504.54,1502.12,-0.4363,0.7625,0.4470,-1.891,-1.496,1.742,29.51,61.30,-0.2815,-0.9124,0.4089,1.474,-0.168,0.908,12.39,-65.83,0.1885,-0.9934,-0.1240,1.812,0.171,-0.324,-7.30,-97.96,0.02,0.04,0.02
7152,1495.68,1483.59,1469.89,-0.5051,0.7361,0.3972,6.384,-1.527,5.436,29.51,61.46,-0.1975,-0.9395,0.4329,4.696,0.413,-1.810,12.37,-65.71,0.1001,-0.9878,-0.1917,-6.783,-2.547,1.141,-7.33,-98.18,0.03,0.04,0.01
7166,1490.04,1493.26,1486.81,-0.4841,0.7568,0.3928,0.109,-1.771,1.039,29.49,61.48,-0.2156,-0.9304,0.4226,-5.106,-0.259,0.648,12.36,-65.78,0.1328,-0.9719,-0.1167,7.828,2.430,-1.149,-7.30,-98.05,0.04,0.05,0.01
7191,1461.03,1444.10,1465.05,-0.4878,0.7539,0.4026,-6.670,-0.122,-6.961,29.49,61.33,-0.2212,-0.9255,0.4199,2.787,0.504,-0.451,12.37,-65.71,0.1279,-0.9946,-0.1714,-0.859,-1.127,0.790,-7.33,-98.10,0.05,0.05,-0.00
7205,1486.81,1447.33,1457.00,-0.4817,0.7510,0.4170,-8.181,-2.320,-8.258,29.45,61.21,-0.2244,-0.9299,0.4221,5.597,-1.053,0.694,12.36,-65.63,0.1326,-0.9719,-0.1077,3.370,1.209,-0.492,-7.32,-98.02,0.06,0.05,-0.01
7229,1485.20,1552.89,1490.04,-0.4805,0.7419,0.4045,0.719,0.138,0.139,29.46,61.23,-0.2231,-0.9182,0.4312,2.268,0.046,0.129,12.36,-65.56,0.1260,-0.9819,-0.1465,2.179,-0.272,0.637,-7.32,-97.98,0.07,0.06,-0.01
7244,1483.59,1511.79,1482.78,-0.4902,0.7476,0.4155,3.269,2.000,3.955,29.49,61.27,-0.2231,-0.9299,0.4326,-1.655,1.268,-0.634,12.37,-65.57,0.1333,-0.9795,-0.1257,-0.249,0.033,-0.218,-7.33,-97.97,0.08,0.06,-0.02
7268,1477.95,1466.67,1443.30,-0.4893,0.7529,0.4050,2.887,1.481,3.009,29.53,61.35,-0.2183,-0.9294,0.4170,-3.304,0.626,-0.039,12.38,-65.65,0.1331,-0.9922,-0.1365,2.515,0.155,0.317,-7.33,-97.90,0.08,0.05,-0.03
7283,1485.20,1495.68,1478.75,-0.4885,0.7529,0.4019,-0.853,0.214,-0.167,29.54,61.34,-0.2175,-0.9319,0.4136,0.955,0.153,-0.375,12.38,-65.65,0.1287,-0.9849,-0.1467,-1.943,-0.501,0.011,-7.34,-97.94,0.08,0.05,-0.04
7307,1457.00,1481.17,1483.59,-0.4907,0.7527,0.3962,0.979,-1.114,-1.052,29.52,61.39,-0.2185,-0.9272,0.4182,-1.045,0.184,0.389,12.38,-65.67,0.1211,-0.9839,-0.1370,2.087,0.293,0.179,-7.32,-97.89,0.09,0.05,-0.04
7321,1465.86,1442.49,1459.41,-0.4888,0.7537,0.4038,3.116,-0.244,2.704,29.53,61.44,-0.2258,-0.9285,0.4124,-2.388,0.733,0.083,12.39,-65.72,0.1243,-0.9846,-0.1333,-0.707,-0.135,0.042,-7.32,-97.90,0.09,0.05,-0.05
7346,1482.78,1512.60,1512.60,-0.4800,0.7556,0.3958,7.269,0.718,7.070,29.54,61.63,-0.2275,-0.9312,0.4092,-0.617,0.214,-0.146,12.40,-65.74,0.1221,-0.9880,-0.1226,0.347,-0.104,0.225,-7.32,-97.87,0.10,0.05,-0.05
7360,1504.54,1530.33,1487.62,-0.4795,0.7627,0.3938,4.658,0.443,4.933,29.54,61.72,-0.2275,-0.9294,0.4050,0.146,-0.030,0.266,12.41,-65.75,0.1221,-0.9873,-0.1418,-0.707,-0.196,0.164,-7.31,-97.89,0.10,0.04,-0.06
7385,1490.84,1506.96,1465.05,-0.4829,0.7646,0.3958,-3.097,-1.008,-4.090,29.51,61.66,-0.2158,-0.9368,0.4202,2.207,-0.244,-0.314,12.39,-65.70,0.1167,-0.9922,-0.1372,-0.585,-0.165,0.134,-7.30,-97.90,0.11,0.05,-0.06
7399,1494.87,1531.14,1482.78,-0.4856,0.7637,0.3999,-8.319,-1.481,-8.625,29.49,61.56,-0.2166,-0.9297,0.4170,0.314,-0.168,0.511,12.38,-65.70,0.1233,-0.9846,-0.1411,-0.050,0.125,-0.141,-7.30,-97.91,0.11,0.05,-0.06
7423,1470.70,1444.10,1462.64,-0.4902,0.7576,0.4065,-10.731,-0.809,-10.854,29.47,61.31,-0.2214,-0.9277,0.4185,1.780,-0.290,-0.360,12.37,-65.66,0.1301,-0.9871,-0.1406,-0.371,-0.241,0.118,-7.31,-97.92,0.12,0.05,-0.07
7437,1483.59,1439.27,1456.19,-0.4922,0.7490,0.4158,-6.471,-0.855,-7.235,29.47,61.21,-0.2253,-0.9319,0.4236,1.230,-0.412,0.404,12.36,-65.64,0.1289,-0.9854,-0.1440,0.347,0.049,-0.050,-7.31,-97.93,0.12,0.06,-0.07
7462,1461.03,1547.25,1508.57,-0.4897,0.7498,0.4158,3.345,0.397,3.314,29.48,61.28,-0.2266,-0.9290,0.4290,1.154,-0.183,-0.299,12.36,-65.60,0.1311,-0.9871,-0.1345,-0.417,-0.211,-0.095,-7.32,-97.93,0.13,0.06,-0.07
7476,1465.86,1510.99,1506.96,-0.4900,0.7527,0.4067,8.017,1.328,8.078,29.51,61.40,-0.2239,-0.9260,0.4233,-0.113,0.382,-0.207,12.37,-65.60,0.1270,-0.9883,-0.1423,0.240,0.049,0.072,-7.31,-97.93,0.13,0.06,-0.07
7501,1495.68,1506.15,1472.31,-0.4797,0.7561,0.4004,7.361,1.023,7.742,29.53,61.59,-0.2222,-0.9319,0.4124,-2.495,0.642,-0.176,12.38,-65.67,0.1301,-0.9883,-0.1514,-0.401,-0.089,0.011,-7.32,-97.96,0.13,0.06,-0.07
7515,1508.57,1516.63,1484.40,-0.4873,0.7605,0.4009,3.559,1.038,3.925,29.54,61.66,-0.2178,-0.9346,0.4163,-0.724,0.413,-0.512,12.38,-65.69,0.1226,-0.9927,-0.1421,-0.050,0.018,0.027,-7.31,-97.96,0.13,0.05,-0.08
7539,1472.31,1444.91,1461.83,-0.4822,0.7578,0.3938,-2.823,-0.595,-3.067,29.53,61.61,-0.2207,-0.9275,0.4077,-0.632,0.016,0.236,12.38,-65.72,0.1208,-0.9885,-0.1394,0.057,0.125,-0.034,-7.30,-97.96,0.13,0.05,-0.08
7554,1481.98,1454.58,1434.43,-0.4871,0.7603,0.3948,-4.456,-0.779,-4.854,29.52,61.56,-0.2231,-0.9316,0.4102,0.284,0.153,-0.344,12.38,-65.72,0.1235,-0.9915,-0.1396,0.041,-0.012,-0.095,-7.29,-97.96,0.13,0.06,-0.08
7578,1475.53,1520.66,1481.98,-0.4893,0.7542,0.4019,-2.594,-0.320,-1.983,29.52,61.51,-0.2231,-0.9292,0.4080,-0.785,-0.137,0.404,12.38,-65.75,0.1262,-0.9854,-0.1375,0.408,0.125,-0.019,-7.29,-97.95,0.14,0.06,-0.08
7593,1468.28,1493.26,1482.78,-0.4883,0.7549,0.4019,-0.059,-0.015,-0.396,29.52,61.52,-0.2258,-0.9280,0.4141,1.307,-0.244,0.022,12.38,-65.74,0.1243,-0.9905,-0.1394,-0.233,-0.119,-0.004,-7.29,-97.96,0.14,0.06,-0.08
7617,1494.07,1488.42,1458.61,-0.4846,0.7539,0.4077,0.200,-0.275,0.368,29.51,61.52,-0.2239,-0.9270,0.4243,1.184,-0.503,0.312,12.37,-65.70,0.1313,-0.9858,-0.1384,0.118,0.049,-0.080,-7.29,-97.96,0.14,0.06,-0.08
7631,1491.65,1505.35,1483.59,-0.4885,0.7549,0.4043,-1.632,-0.030,-1.877,29.52,61.51,-0.2195,-0.9253,0.4226,0.604,-0.290,0.221,12.36,-65.69,0.1257,-0.9883,-0.1445,-0.127,-0.104,0.103,-7.29,-97.97,0.14,0.06,-0.08
7656,1542.42,1444.10,1457.00,-0.4880,0.7527,0.4058,-4.349,-0.473,-4.762,29.51,61.40,-0.2180,-0.9268,0.4248,0.268,-0.137,0.007,12.35,-65.68,0.1326,-0.9863,-0.1462,0.118,0.033,-0.080,-7.30,-97.97,0.14,0.06,-0.08
7670,1491.65,1444.10,1461.83,-0.4917,0.7515,0.4092,-4.029,-0.916,-4.258,29.50,61.35,-0.2190,-0.9290,0.4182,-0.587,0.031,0.251,12.35,-65.69,0.1289,-0.9863,-0.1418,0.194,0.079,-0.019,-7.30,-97.97,0.14,0.06,-0.07
7694,1480.37,1519.85,1502.93,-0.4905,0.7546,0.4038,0.231,0.092,0.322,29.51,61.36,-0.2229,-0.9292,0.4194,0.024,0.031,-0.222,12.35,-65.69,0.1301,-0.9880,-0.1426,0.072,0.049,-0.034,-7.30,-97.98,0.14,0.06,-0.07
7709,1469.89,1471.50,1482.78,-0.4849,0.7488,0.4019,3.880,0.580,3.864,29.52,61.43,-0.2219,-0.9285,0.4221,-1.029,0.153,0.236,12.35,-65.70,0.1277,-0.9849,-0.1423,0.270,-0.012,0.088,-7.30,-97.98,0.14,0.06,-0.07
7733,1487.62,1502.93,1462.64,-0.4907,0.7561,0.3987,5.864,1.252,5.482,29.56,61.58,-0.2197,-0.9351,0.4155,-0.587,0.336,-0.436,12.35,-65.72,0.1228,-0.9895,-0.1357,-0.233,-0.058,0.011,-7.29,-97.98,0.13,0.06,-0.07
7748,1487.62,1611.72,1485.20,-0.4824,0.7573,0.3999,4.353,0.122,4.184,29.56,61.66,-0.2214,-0.9258,0.4131,-1.426,0.413,0.098,12.36,-65.74,0.1182,-0.9915,-0.1357,-0.020,0.064,-0.065,-7.28,-97.98,0.13,0.06,-0.07
7772,1462.64,1416.70,1467.47,-0.4854,0.7649,0.3977,-1.449,0.092,-1.373,29.56,61.64,-0.2256,-0.9343,0.4158,0.360,-0.030,-0.176,12.36,-65.74,0.1252,-0.9846,-0.1348,-0.142,-0.058,0.027,-7.28,-97.98,0.13,0.06,-0.07
7786,1492.45,1432.01,1448.94,-0.4878,0.7603,0.4006,-2.838,-1.069,-3.342,29.54,61.61,-0.2188,-0.9333,0.4155,1.047,-0.244,0.007,12.35,-65.73,0.1233,-0.9883,-0.1348,0.057,0.049,-0.065,-7.28,-97.97,0.12,0.06,-0.07
7811,1465.86,1519.85,1495.68,-0.4866,0.7532,0.3989,-3.769,-0.397,-4.274,29.54,61.53,-0.2185,-0.9292,0.4124,0.589,-0.152,0.098,12.34,-65.72,0.1230,-0.9895,-0.1396,-0.111,-0.089,-0.004,-7.27,-97.97,0.12,0.06,-0.06
7825,1477.95,1503.74,1482.78,-0.4907,0.7544,0.4060,-2.929,-0.412,-2.930,29.54,61.49,-0.2224,-0.9321,0.4255,1.169,-0.091,-0.100,12.34,-65.70,0.1233,-0.9880,-0.1438,-0.127,0.003,-0.034,-7.27,-97.98,0.12,0.06,-0.06
7850,1494.87,1500.51,1475.53,-0.4888,0.7539,0.4067,-0.823,-0.137,-1.281,29.54,61.48,-0.2283,-0.9302,0.4219,0.238,-0.229,0.205,12.34,-65.69,0.1294,-0.9895,-0.1399,0.057,-0.180,0.103,-7.27,-97.98,0.12,0.06,-0.06
7864,1475.53,1527.11,1499.71,-0.4880,0.7542,0.4094,-0.212,0.107,-0.365,29.54,61.47,-0.2183,-0.9324,0.4194,1.245,-0.106,-0.253,12.33,-65.68,0.1296,-0.9929,-0.1345,-0.310,0.018,-0.095,-7.28,-97.98,0.12,0.06,-0.05
7888,1477.14,1431.21,1457.80,-0.4873,0.7537,0.4016,0.093,-0.336,0.673,29.54,61.48,-0.2209,-0.9253,0.4207,-0.556,-0.030,0.297,12.33,-65.69,0.1296,-0.9854,-0.1438,0.301,-0.104,0.072,-7.28,-97.98,0.11,0.06,-0.05
7903,1482.78,1456.19,1444.10,-0.4897,0.7559,0.4077,-0.120,-0.107,0.551,29.54,61.49,-0.2183,-0.9290,0.4146,0.268,0.168,-0.237,12.33,-65.69,0.1221,-0.9902,-0.1353,-0.233,0.064,-0.034,-7.27,-97.98,0.11,0.06,-0.05
7927,1492.45,1514.21,1490.84,-0.4873,0.7534,0.4001,1.544,0.015,0.749,29.54,61.53,-0.2266,-0.9272,0.4165,-1.442,0.291,0.282,12.34,-65.73,0.1233,-0.9851,-0.1418,0.255,0.033,0.011,-7.27,-97.98,0.11,0.06,-0.05
7941,1475.53,1485.20,1469.89,-0.4868,0.7529,0.4036,0.994,0.458,0.826,29.55,61.55,-0.2224,-0.9297,0.4131,-0.922,0.306,-0.054,12.34,-65.75,0.1282,-0.9854,-0.1384,-0.050,-0.043,-0.095,-7.27,-97.98,0.11,0.06,-0.05
7966,1515.02,1534.36,1482.78,-0.4844,0.7542,0.3970,1.559,-0.229,0.841,29.55,61.60,-0.2209,-0.9302,0.4194,-0.251,0.000,0.083,12.34,-65.75,0.1211,-0.9885,-0.1404,0.255,0.155,-0.004,-7.26,-97.98,0.11,0.06,-0.04
7980,1495.68,1543.22,1491.65,-0.4836,0.7576,0.3989,-0.395,-0.122,-0.319,29.54,61.61,-0.2200,-0.9290,0.4128,-0.373,-0.061,0.221,12.34,-65.76,0.1211,-0.9854,-0.1375,-0.020,0.003,0.072,-7.25,-97.97,0.11,0.07,-0.04
8005,1491.65,1449.74,1430.40,-0.4856,0.7585,0.4077,-1.082,-0.091,-1.510,29.54,61.59,-0.2234,-0.9309,0.4219,0.452,0.000,-0.069,12.34,-65.75,0.1272,-0.9900,-0.1357,-0.020,0.018,-0.111,-7.25,-97.97,0.10,0.07,-0.04
8019,1506.15,1464.25,1448.94,-0.4841,0.7576,0.4004,-2.105,-0.153,-1.846,29.53,61.57,-0.2197,-0.9307,0.4170,-0.297,-0.244,0.327,12.33,-65.76,0.1267,-0.9880,-0.1382,0.362,0.064,0.057,-7.25,-97.97,0.10,0.07,-0.03
8043,1491.65,1499.71,1484.40,-0.4851,0.7568,0.4041,-2.044,-0.320,-2.686,29.53,61.53,-0.2241,-0.9319,0.4211,1.658,-0.168,-0.360,12.32,-65.71,0.1265,-0.9893,-0.1348,-0.401,-0.043,-0.004,-7.25,-97.97,0.10,0.07,-0.03
8058,1479.56,1464.25,1475.53,-0.4883,0.7559,0.4060,-1.952,-0.748,-1.846,29.52,61.50,-0.2246,-0.9272,0.4214,-0.205,-0.259,0.389,12.32,-65.71,0.1294,-0.9849,-0.1370,0.331,0.171,0.042,-7.25,-97.97,0.10,0.07,-0.03
8082,1488.42,1517.44,1473.11,-0.4893,0.7583,0.4128,-0.838,-0.107,-0.869,29.52,61.48,-0.2188,-0.9312,0.4216,0.787,0.168,-0.253,12.32,-65.69,0.1287,-0.9934,-0.1418,-0.310,-0.012,-0.050,-7.25,-97.98,0.10,0.08,-0.03
8096,1491.65,1541.61,1502.93,-0.4890,0.7542,0.4006,0.750,-0.076,0.154,29.52,61.50,-0.2253,-0.9329,0.4214,-0.174,0.138,-0.024,12.33,-65.70,0.1245,-0.9871,-0.1416,0.133,0.110,-0.080,-7.25,-97.98,0.10,0.08,-0.02
8121,1498.10,1431.21,1460.22,-0.4880,0.7573,0.4065,1.223,0.809,1.864,29.54,61.54,-0.2261,-0.9290,0.4102,-0.464,0.245,-0.161,12.34,-65.72,0.1257,-0.9900,-0.1396,-0.004,0.049,0.057,-7.25,-97.98,0.10,0.08,-0.02
8135,1487.62,1450.55,1441.69,-0.4866,0.7607,0.4038,2.002,0.229,1.314,29.54,61.58,-0.2239,-0.9299,0.4194,0.085,0.092,-0.451,12.34,-65.72,0.1270,-0.9910,-0.1382,-0.172,-0.058,0.011,-7.25,-97.98,0.10,0.08,-0.02
8160,1465.86,1461.83,1503.74,-0.4873,0.7632,0.4031,0.414,0.473,0.597,29.55,61.60,-0.2241,-0.9280,0.4136,-0.312,-0.229,0.144,12.34,-65.73,0.1233,-0.9893,-0.1301,0.163,0.033,-0.080,-7.24,-97.97,0.10,0.08,-0.02
8174,1481.17,1431.21,1496.48,-0.4841,0.7566,0.4006,-0.838,-0.061,-0.243,29.55,61.60,-0.2251,-0.9314,0.4153,1.184,-0.091,-0.344,12.34,-65.72,0.1228,-0.9861,-0.1431,-0.325,0.003,-0.080,-7.24,-97.98,0.10,0.08,-0.02
8198,1473.92,1519.85,1491.65,-0.4824,0.7551,0.4033,-2.273,-0.412,-2.212,29.54,61.55,-0.2244,-0.9263,0.4119,-0.510,-0.122,0.373,12.34,-65.74,0.1238,-0.9841,-0.1428,0.179,-0.028,0.179,-7.24,-97.98,0.10,0.08,-0.01
8213,1486.01,1508.57,1488.42,-0.4856,0.7539,0.4043,-3.113,-0.091,-2.915,29.54,61.51,-0.2231,-0.9297,0.4194,0.894,-0.213,-0.176,12.33,-65.72,0.1243,-0.9849,-0.1423,-0.386,-0.043,0.011,-7.23,-97.99,0.10,0.09,-0.01
8237,1497.29,1449.74,1446.52,-0.4998,0.7590,0.4058,-3.647,-0.717,-2.976,29.53,61.43,-0.2168,-0.9243,0.4155,-0.129,-0.198,0.526,12.32,-65.73,0.1274,-0.9958,-0.1414,-0.203,-0.028,-0.050,-7.23,-98.00,0.10,0.09,-0.01
8252,1513.41,1460.22,1490.04,-0.5193,0.7734,0.4216,-9.052,-1.023,-5.922,29.54,61.30,-0.2053,-0.9324,0.4250,1.169,-0.335,0.679,12.30,-65.71,0.1306,-1.0161,-0.1685,-1.714,-0.654,-0.126,-7.24,-98.05,0.09,0.09,-0.01
8276,1480.37,1469.89,1493.26,-0.4565,0.7073,0.4001,0.582,-2.549,-2.365,29.47,61.30,-0.2295,-0.9304,0.4282,-0.006,0.672,1.625,12.32,-65.70,0.1343,-0.9272,-0.1072,8.392,2.110,-0.813,-7.21,-97.82,0.10,0.10,-0.00
8290,1482.78,1447.33,1472.31,-0.4390,0.7021,0.3857,8.078,4.855,11.024,29.52,61.41,-0.2505,-0.8857,0.3999,-7.762,-0.748,2.312,12.35,-65.81,0.1223,-0.9180,-0.0781,1.110,0.507,0.271,-7.21,-97.74,0.10,0.10,0.00
8315,1482.78,1512.60,1477.14,-0.5044,0.8230,0.4241,30.261,7.099,31.757,29.68,62.17,-0.2427,-0.9590,0.4368,3.887,0.993,-5.153,12.39,-65.71,0.1321,-1.0513,-0.1240,-2.539,0.644,-0.431,-7.19,-97.78,0.09,0.09,0.00
8329,1481.98,1512.60,1508.57,-0.4846,0.8044,0.3955,24.887,0.183,21.849,29.65,62.55,-0.2178,-0.9258,0.4065,-7.747,0.229,2.236,12.39,-65.83,0.1235,-1.0144,-0.1501,-2.218,-1.127,0.653,-7.20,-97.83,0.09,0.09,-0.00
8354,1508.57,1458.61,1457.00,-0.4895,0.7559,0.3630,-34.013,-4.214,-34.655,29.56,61.76,-0.1868,-0.9458,0.4187,7.108,0.962,-3.230,12.37,-65.66,0.1118,-0.9729,-0.1658,-1.363,-0.211,-0.187,-7.19,-97.90,0.09,0.09,0.00
8369,1478.75,1462.64,1449.74,-0.5125,0.7493,0.3892,-53.372,-6.015,-54.594,29.51,61.02,-0.1897,-0.9443,0.4246,0.711,0.413,0.984,12.33,-65.65,0.1150,-0.9832,-0.1763,-1.791,0.247,0.042,-7.18,-97.97,0.09,0.10,0.01
8393,1461.03,1506.15,1488.42,-0.5212,0.7432,0.4417,-22.441,-3.038,-20.976,29.47,60.45,-0.2322,-0.9336,0.4207,6.391,-1.068,-0.894,12.32,-65.50,0.1292,-1.0083,-0.1318,2.087,0.384,-0.126,-7.17,-97.91,0.09,0.11,0.01
8407,1478.75,1482.78,1471.50,-0.5042,0.7375,0.4502,15.788,0.626,16.490,29.50,60.64,-0.2405,-0.9370,0.4443,6.161,-1.709,0.847,12.31,-65.40,0.1470,-0.9946,-0.1125,3.537,0.675,-0.874,-7.18,-97.83,0.09,0.11,0.02
8432,1527.11,1504.54,1490.04,-0.4526,0.7275,0.4070,44.521,6.550,46.994,29.63,61.71,-0.2390,-0.9070,0.4209,1.154,-0.427,0.297,12.32,-65.36,0.1458,-0.9500,-0.1113,-0.340,0.033,-0.034,-7.21,-97.81,0.09,0.11,0.02
8446,1485.20,1532.75,1481.98,-0.4597,0.7639,0.3933,34.567,7.328,35.742,29.71,62.21,-0.2256,-0.9250,0.4399,0.940,1.161,-2.940,12.34,-65.34,0.1316,-0.9839,-0.1340,-2.798,-0.379,0.317,-7.23,-97.85,0.08,0.10,0.02
8471,1528.72,1481.17,1457.00,-0.4839,0.7905,0.3730,-1.632,-2.153,-3.251,29.64,62.22,-0.2166,-0.9255,0.4045,-9.014,2.000,-0.176,12.38,-65.57,0.1152,-1.0042,-0.1548,-0.295,0.125,0.240,-7.21,-97.88,0.07,0.09,0.02
8485,1498.10,1482.78,1462.64,-0.4927,0.7798,0.3782,-23.769,-5.252,-25.816,29.57,61.93,-0.2080,-0.9375,0.3970,-2.922,1.145,-1.276,12.38,-65.64,0.1169,-0.9971,-0.1543,-0.295,-0.394,0.271,-7.20,-97.90,0.08,0.09,0.02
8509,1506.96,1501.32,1483.59,-0.4939,0.7349,0.4060,-38.807,-4.611,-38.533,29.47,60.98,-0.2148,-0.9304,0.4072,2.986,-0.641,1.457,12.36,-65.58,0.1223,-0.9758,-0.1453,2.011,0.278,-0.187,-7.19,-97.86,0.08,0.10,0.02
8524,1474.73,1459.41,1461.03,-0.4973,0.7334,0.4131,-23.403,-2.840,-23.357,29.46,60.65,-0.2236,-0.9216,0.4153,2.940,-1.114,0.801,12.34,-65.55,0.1211,-0.9866,-0.1318,1.018,0.171,-0.004,-7.18,-97.84,0.09,0.11,0.02
8548,1507.77,1508.57,1471.50,-0.5015,0.7468,0.4277,24.139,1.924,24.200,29.52,61.21,-0.2341,-0.9294,0.4160,0.055,-0.152,0.098,12.35,-65.55,0.1313,-0.9927,-0.1318,0.698,0.186,-0.202,-7.19,-97.82,0.09,0.12,0.02
8562,1483.59,1545.64,1517.44,-0.4763,0.7490,0.4041,39.391,3.771,39.955,29.56,61.77,-0.2354,-0.9226,0.4214,-2.495,0.229,0.709,12.37,-65.59,0.1287,-0.9822,-0.1279,0.255,-0.058,0.057,-7.19,-97.81,0.09,0.12,0.02
8587,1494.87,1450.55,1469.89,-0.4644,0.7759,0.3835,18.216,3.481,19.085,29.62,62.25,-0.2249,-0.9321,0.4148,2.681,-0.397,-0.741,12.36,-65.53,0.1274,-0.9875,-0.1445,-1.623,-0.318,-0.019,-7.20,-97.86,0.09,0.11,0.02
8601,1479.56,1494.87,1455.38,-0.4736,0.7854,0.3804,-6.624,-0.366,-6.976,29.59,62.20,-0.2122,-0.9304,0.4221,1.612,-0.595,0.037,12.34,-65.51,0.1277,-0.9900,-0.1560,-1.516,-0.180,0.042,-7.20,-97.90,0.09,0.11,0.03
8626,1482.78,1493.26,1488.42,-0.4988,0.7639,0.4009,-35.143,-5.298,-35.861,29.48,61.36,-0.2163,-0.9294,0.4260,-1.151,0.596,-0.283,12.35,-65.53,0.1248,-0.9927,-0.1567,0.545,0.064,0.042,-7.20,-97.91,0.09,0.12,0.03
8640,1474.73,1452.16,1471.50,-0.5029,0.7402,0.4128,-30.823,-4.473,-31.999,29.44,60.92,-0.2212,-0.9331,0.4155,-2.388,0.535,0.251,12.35,-65.58,0.1252,-0.9861,-0.1453,1.110,0.125,-0.202,-7.20,-97.91,0.10,0.13,0.03
8664,1511.79,1534.36,1499.71,-0.4973,0.7341,0.4299,0.658,0.886,1.513,29.48,60.91,-0.2317,-0.9272,0.4155,0.910,-0.229,0.098,12.36,-65.56,0.1323,-0.9863,-0.1331,0.270,-0.043,-0.080,-7.21,-97.89,0.10,0.13,0.03
8679,1481.98,1521.47,1482.78,-0.4949,0.7395,0.4275,20.429,3.817,21.513,29.54,61.17,-0.2283,-0.9285,0.4253,2.681,-0.641,0.068,12.35,-65.52,0.1279,-0.9866,-0.1304,-0.081,0.064,0.027,-7.21,-97.89,0.10,0.13,0.03
8703,1490.04,1462.64,1442.49,-0.4841,0.7656,0.3987,31.116,3.176,31.268,29.61,61.95,-0.2251,-0.9285,0.4211,-1.136,0.367,-0.268,12.36,-65.55,0.1233,-0.9924,-0.1396,-0.753,-0.089,0.164,-7.21,-97.91,0.10,0.13,0.03
8717,1475.53,1495.68,1470.70,-0.4758,0.7715,0.3833,18.307,2.199,18.139,29.63,62.23,-0.2170,-0.9331,0.4097,-2.861,0.871,-0.436,12.37,-65.60,0.1216,-0.9907,-0.1494,-0.417,-0.074,-0.004,-7.20,-97.93,0.10,0.12,0.03
8742,1492.45,1472.31,1482.78,-0.4773,0.7725,0.3828,-15.021,-1.404,-15.220,29.58,61.90,-0.2192,-0.9321,0.4089,-0.602,0.107,-0.176,12.37,-65.63,0.1223,-0.9934,-0.1450,-0.310,-0.104,0.072,-7.20,-97.94,0.09,0.12,0.03
8756,1473.11,1469.08,1457.00,-0.4844,0.7642,0.3958,-25.983,-3.832,-26.732,29.52,61.55,-0.2214,-0.9329,0.4106,2.177,-0.595,0.221,12.36,-65.61,0.1250,-0.9883,-0.1426,0.530,0.217,-0.095,-7.19,-97.94,0.10,0.12,0.03
8781,1502.93,1536.78,1494.07,-0.4932,0.7468,0.4124,-17.998,-2.702,-18.274,29.47,61.11,-0.2278,-0.9304,0.4219,2.238,-0.671,0.312,12.34,-65.56,0.1289,-0.9880,-0.1362,0.270,0.094,0.057,-7.19,-97.93,0.10,0.13,0.03
8795,1562.56,1512.60,1506.15,-0.4956,0.7405,0.4167,-3.021,-0.458,-3.587,29.48,61.06,-0.2283,-0.9272,0.4211,0.100,0.016,0.068,12.35,-65.56,0.1294,-0.9890,-0.1355,0.286,0.018,0.072,-7.20,-97.93,0.11,0.13,0.03
8820,1485.20,1461.83,1451.36,-0.4875,0.7458,0.4075,16.796,2.412,17.192,29.54,61.47,-0.2249,-0.9309,0.4163,-1.136,0.397,-0.329,12.36,-65.59,0.1287,-0.9854,-0.1394,-0.386,-0.226,0.088,-7.21,-97.94,0.11,0.13,0.03
8834,1491.65,1508.57,1455.38,-0.4854,0.7610,0.4104,17.819,2.244,17.726,29.57,61.72,-0.2212,-0.9282,0.4199,0.207,0.061,-0.222,12.36,-65.59,0.1265,-0.9871,-0.1440,-0.478,-0.135,0.103,-7.21,-97.95,0.11,0.13,0.03
8858,1457.00,1457.80,1470.70,-0.4800,0.7656,0.3926,2.994,0.061,2.841,29.56,61.82,-0.2227,-0.9263,0.4189,0.803,-0.168,0.053,12.36,-65.57,0.1257,-0.9883,-0.1384,0.163,0.064,-0.034,-7.21,-97.95,0.10,0.13,0.03
8873,1445.71,1442.49,1452.97,-0.4824,0.7646,0.3967,-7.113,-1.328,-7.510,29.54,61.73,-0.2185,-0.9290,0.4226,-0.098,0.138,-0.085,12.35,-65.57,0.1223,-0.9900,-0.1426,0.133,0.033,-0.019,-7.20,-97.95,0.10,0.13,0.03
8897,1472.31,1533.55,1500.51,-0.4841,0.7488,0.4084,-11.983,-1.847,-12.426,29.50,61.44,-0.2246,-0.9263,0.4216,-1.640,0.397,0.098,12.36,-65.61,0.1257,-0.9863,-0.1365,0.621,0.110,0.011,-7.20,-97.93,0.11,0.13,0.03
8911,1465.86,1519.85,1494.87,-0.4888,0.7520,0.4060,-7.479,-1.145,-7.724,29.49,61.34,-0.2251,-0.9287,0.4160,-0.556,0.153,-0.008,12.37,-65.63,0.1262,-0.9907,-0.1318,-0.004,-0.119,-0.034,-7.20,-97.93,0.11,0.14,0.03
8936,1481.98,1481.98,1473.11,-0.4934,0.7490,0.4102,4.964,0.351,4.917,29.50,61.46,-0.2271,-0.9299,0.4126,0.696,-0.290,0.160,12.37,-65.62,0.1270,-0.9858,-0.1348,-0.142,-0.074,-0.050,-7.20,-97.93,0.12,0.14,0.03
8950,1508.57,1482.78,1482.78,-0.4905,0.7556,0.4033,8.216,1.023,9.055,29.52,61.58,-0.2227,-0.9277,0.4150,0.375,-0.259,0.190,12.36,-65.62,0.1235,-0.9854,-0.1318,-0.295,0.003,-0.004,-7.20,-97.93,0.12,0.14,0.03
8974,1458.61,1484.40,1467.47,-0.4854,0.7654,0.3982,4.445,0.489,4.108,29.53,61.70,-0.2175,-0.9304,0.4158,-0.327,-0.015,-0.069,12.36,-65.63,0.1255,-0.9888,-0.1438,-0.081,0.094,-0.004,-7.20,-97.94,0.12,0.14,0.03
8989,1493.26,1456.19,1460.22,-0.4775,0.7585,0.4011,-1.296,-0.580,-1.251,29.52,61.70,-0.2212,-0.9294,0.4199,-0.052,-0.015,0.083,12.35,-65.63,0.1252,-0.9868,-0.1404,0.133,0.049,0.072,-7.20,-97.94,0.12,0.14,0.03
9013,1475.53,1531.14,1481.98,-0.4844,0.7612,0.4041,-8.029,-1.633,-7.816,29.47,61.51,-0.2231,-0.9294,0.4216,1.474,-0.244,-0.100,12.35,-65.60,0.1277,-0.9890,-0.1414,0.041,0.049,-0.019,-7.20,-97.94,0.12,0.15,0.03
9028,1482.78,1523.88,1494.07,-0.4873,0.7500,0.4136,-6.991,-0.626,-7.357,29.47,61.40,-0.2268,-0.9277,0.4211,0.391,-0.320,0.205,12.35,-65.59,0.1284,-0.9827,-0.1438,0.209,0.018,-0.019,-7.20,-97.94,0.13,0.15,0.03
9052,1500.51,1458.61,1474.73,-0.4910,0.7510,0.4116,-0.777,-0.382,-0.212,29.47,61.38,-0.2197,-0.9302,0.4224,-0.495,0.245,-0.192,12.35,-65.60,0.1309,-0.9868,-0.1313,-0.188,-0.074,0.011,-7.21,-97.94,0.13,0.16,0.03
9066,1482.78,1506.96,1468.28,-0.4915,0.7505,0.4062,3.758,0.305,3.925,29.48,61.44,-0.2209,-0.9253,0.4221,-1.411,0.275,-0.054,12.35,-65.62,0.1287,-0.9849,-0.1343,0.194,0.110,0.042,-7.21,-97.94,0.13,0.16,0.03
9091,1482.78,1490.84,1469.08,-0.4890,0.7549,0.4075,6.048,1.344,6.520,29.52,61.59,-0.2222,-0.9346,0.4160,-0.068,0.061,-0.222,12.35,-65.63,0.1279,-0.9854,-0.1387,-0.218,0.003,-0.050,-7.21,-97.94,0.13,0.16,0.03
9105,1485.20,1446.52,1440.88,-0.4856,0.7610,0.3958,3.910,0.763,3.482,29.53,61.66,-0.2249,-0.9290,0.4177,0.314,-0.091,-0.024,12.35,-65.63,0.1233,-0.9834,-0.1370,-0.035,0.033,-0.050,-7.21,-97.94,0.13,0.16,0.03
9130,1488.42,1537.58,1489.23,-0.4834,0.7627,0.4016,-2.166,-0.137,-1.754,29.52,61.62,-0.2266,-0.9299,0.4180,0.253,0.077,-0.008,12.36,-65.63,0.1228,-0.9863,-0.1387,0.102,-0.012,-0.034,-7.21,-97.94,0.13,0.16,0.03
9144,1491.65,1508.57,1487.62,-0.4849,0.7583,0.4014,-3.540,-0.153,-3.495,29.52,61.58,-0.2236,-0.9326,0.4182,0.268,0.061,-0.054,12.36,-65.63,0.1321,-0.9897,-0.1375,0.011,0.018,-0.157,-7.21,-97.94,0.13,0.16,0.03
9168,1483.59,1471.50,1500.51,-0.4854,0.7551,0.4031,-4.487,-0.473,-3.907,29.50,61.48,-0.2261,-0.9260,0.4124,-0.220,-0.137,0.129,12.36,-65.64,0.1262,-0.9861,-0.1389,0.087,-0.028,0.011,-7.21,-97.94,0.13,0.16,0.03
9183,1477.14,1519.85,1486.81,-0.4900,0.7607,0.4036,-2.441,-0.458,-2.594,29.50,61.46,-0.2229,-0.9287,0.4150,1.001,-0.198,-0.299,12.35,-65.63,0.1260,-0.9863,-0.1448,-0.371,-0.089,0.011,-7.21,-97.95,0.13,0.16,0.03
9207,1491.65,1471.50,1480.37,-0.4902,0.7549,0.4099,-0.334,0.519,-0.136,29.52,61.45,-0.2205,-0.9302,0.4131,-0.083,-0.229,0.236,12.35,-65.64,0.1304,-0.9878,-0.1411,0.118,-0.058,0.072,-7.22,-97.95,0.13,0.16,0.03
9221,1457.00,1450.55,1477.14,-0.4868,0.7517,0.4104,0.903,-0.107,0.734,29.52,61.46,-0.2195,-0.9277,0.4148,0.467,-0.030,-0.146,12.34,-65.64,0.1267,-0.9875,-0.1460,-0.233,-0.028,0.072,-7.22,-97.97,0.13,0.16,0.03
9246,1504.54,1523.88,1487.62,-0.4880,0.7483,0.4048,1.238,0.168,1.406,29.53,61.49,-0.2231,-0.9265,0.4194,-0.495,0.046,0.175,12.34,-65.65,0.1294,-0.9893,-0.1377,0.148,0.018,0.011,-7.22,-97.96,0.13,0.15,0.02
9260,1467.47,1513.41,1494.07,-0.4883,0.7576,0.4075,0.933,0.351,1.131,29.53,61.51,-0.2217,-0.9287,0.4224,-0.235,0.016,-0.008,12.34,-65.65,0.1265,-0.9858,-0.1401,0.057,0.003,-0.034,-7.22,-97.96,0.13,0.15,0.02
9285,1508.57,1499.71,1551.28,-0.4888,0.7561,0.4014,0.139,0.443,0.032,29.55,61.53,-0.2209,-0.9255,0.4167,-0.190,0.123,0.068,12.34,-65.66,0.1292,-0.9863,-0.1370,-0.157,-0.028,-0.034,-7.23,-97.97,0.12,0.15,0.02
9299,1495.68,1521.47,1477.95,-0.4861,0.7585,0.3945,-0.792,0.000,-0.838,29.55,61.54,-0.2239,-0.9268,0.4170,-0.663,0.153,0.068,12.35,-65.67,0.1238,-0.9844,-0.1375,0.041,0.033,0.103,-7.22,-97.97,0.12,0.15,0.02
9323,1488.42,1440.88,1461.03,-0.4893,0.7554,0.4055,-1.479,0.092,-1.525,29.56,61.50,-0.2202,-0.9277,0.4141,0.207,0.092,-0.115,12.35,-65.67,0.1238,-0.9863,-0.1414,0.041,0.064,-0.019,-7.22,-97.97,0.12,0.14,0.02
9338,1473.92,1440.88,1457.80,-0.4856,0.7534,0.4050,-1.158,-0.351,-1.159,29.55,61.49,-0.2219,-0.9280,0.4163,-0.327,-0.030,0.312,12.35,-65.68,0.1199,-0.9880,-0.1414,0.163,0.049,-0.019,-7.21,-97.97,0.12,0.14,0.02
9362,1477.14,1508.57,1519.05,-0.4849,0.7563,0.4072,-0.059,-0.198,-0.426,29.54,61.50,-0.2205,-0.9309,0.4255,0.833,0.016,-0.207,12.34,-65.66,0.1306,-0.9854,-0.1284,0.041,0.033,-0.034,-7.22,-97.96,0.12,0.14,0.02
9377,1473.92,1498.10,1484.40,-0.4844,0.7556,0.4084,0.017,-0.214,0.169,29.54,61.50,-0.2214,-0.9272,0.4180,0.085,-0.152,0.236,12.34,-65.66,0.1235,-0.9861,-0.1392,0.026,0.049,-0.004,-7.21,-97.96,0.11,0.14,0.02
9401,1508.57,1490.04,1444.91,-0.4883,0.7568,0.4087,0.124,0.214,0.307,29.55,61.50,-0.2239,-0.9331,0.4211,0.161,0.107,-0.115,12.34,-65.65,0.1221,-0.9846,-0.1387,0.118,-0.043,-0.019,-7.21,-97.96,0.11,0.14,0.02
9415,1498.10,1520.66,1500.51,-0.4917,0.7581,0.4014,-0.090,0.076,-0.136,29.55,61.51,-0.2239,-0.9314,0.4182,-0.312,0.107,0.022,12.34,-65.66,0.1235,-0.9932,-0.1372,-0.081,-0.012,-0.080,-7.21,-97.96,0.11,0.14,0.03
9440,1482.78,1444.91,1485.20,-0.4861,0.7551,0.4058,-0.853,-0.091,-0.594,29.55,61.50,-0.2188,-0.9275,0.4124,0.223,-0.045,-0.039,12.34,-65.66,0.1257,-0.9858,-0.1321,0.118,0.018,-0.019,-7.21,-97.95,0.11,0.14,0.03
9454,1470.70,1436.85,1472.31,-0.4851,0.7590,0.4028,-0.914,-0.122,-0.518,29.55,61.50,-0.2227,-0.9285,0.4177,0.375,-0.045,-0.054,12.34,-65.66,0.1262,-0.9832,-0.1401,-0.035,0.003,-0.065,-7.21,-97.95,0.11,0.13,0.03
9479,1517.44,1506.96,1488.42,-0.4907,0.7573,0.4048,-0.685,0.244,-0.487,29.56,61.49,-0.2227,-0.9294,0.4136,-0.190,0.031,-0.008,12.34,-65.67,0.1270,-0.9907,-0.1421,-0.066,-0.058,0.088,-7.21,-97.96,0.11,0.13,0.03
9493,1465.86,1470.70,1475.53,-0.4841,0.7546,0.4050,0.078,0.107,0.108,29.56,61.49,-0.2229,-0.9314,0.4229,0.177,0.092,-0.131,12.34,-65.67,0.1228,-0.9834,-0.1375,-0.111,-0.028,-0.126,-7.21,-97.96,0.10,0.13,0.03
9517,1495.68,1508.57,1456.19,-0.4875,0.7537,0.4019,-0.120,0.382,-0.258,29.57,61.50,-0.2258,-0.9294,0.4182,-0.266,-0.030,0.144,12.34,-65.68,0.1279,-0.9895,-0.1409,-0.066,0.003,-0.034,-7.21,-97.96,0.10,0.13,0.03
9532,1482.78,1525.49,1509.38,-0.4868,0.7563,0.4060,-0.258,-0.702,-0.335,29.56,61.50,-0.2229,-0.9277,0.4158,0.482,-0.137,-0.100,12.34,-65.67,0.1262,-0.9849,-0.1375,-0.035,-0.089,-0.065,-7.21,-97.96,0.10,0.13,0.03
9556,1479.56,1444.10,1482.78,-0.4834,0.7554,0.4041,-1.006,-0.046,-0.991,29.55,61.49,-0.2234,-0.9282,0.4185,-0.113,-0.030,0.221,12.34,-65.68,0.1252,-0.9863,-0.1433,0.041,-0.012,-0.065,-7.21,-97.97,0.10,0.13,0.03
9570,1482.78,1475.53,1457.00,-0.4895,0.7576,0.4016,-0.792,-0.443,-0.777,29.55,61.49,-0.2258,-0.9292,0.4182,0.039,-0.030,-0.100,12.34,-65.68,0.1270,-0.9888,-0.1418,0.133,0.018,-0.004,-7.21,-97.97,0.10,0.13,0.03
9595,1491.65,1517.44,1500.51,-0.4895,0.7563,0.4016,-0.181,0.000,-0.793,29.56,61.49,-0.2244,-0.9282,0.4187,-0.526,0.016,0.083,12.35,-65.69,0.1233,-0.9873,-0.1379,0.057,0.155,0.027,-7.20,-97.97,0.10,0.13,0.03
9609,1475.53,1488.42,1497.29,-0.4856,0.7605,0.4006,-0.380,0.000,-0.411,29.55,61.50,-0.2285,-0.9307,0.4175,-0.113,-0.076,-0.008,12.35,-65.70,0.1245,-0.9863,-0.1399,-0.081,0.033,0.072,-7.20,-97.97,0.10,0.13,0.03
9634,1495.68,1517.44,1465.86,-0.4895,0.7524,0.3994,0.475,0.229,0.475,29.57,61.52,-0.2224,-0.9258,0.4194,-0.068,0.016,0.068,12.35,-65.70,0.1306,-0.9846,-0.1418,0.194,0.140,-0.004,-7.20,-97.97,0.09,0.13,0.03
9648,1488.42,1531.94,1490.04,-0.4893,0.7559,0.4070,0.139,0.275,0.047,29.57,61.53,-0.2224,-0.9270,0.4138,-0.312,-0.076,0.098,12.35,-65.71,0.1282,-0.9915,-0.1414,-0.172,0.033,0.072,-7.20,-97.98,0.09,0.12,0.03
9672,1494.87,1457.80,1457.00,-0.4873,0.7559,0.3970,-0.716,-0.473,-0.487,29.56,61.53,-0.2227,-0.9309,0.4207,0.192,0.000,0.083,12.35,-65.70,0.1230,-0.9890,-0.1392,0.118,0.110,-0.050,-7.20,-97.97,0.09,0.12,0.03
9687,1481.17,1459.41,1470.70,-0.4819,0.7534,0.4075,-0.853,-0.229,-0.884,29.56,61.52,-0.2207,-0.9263,0.4155,-0.449,-0.030,0.327,12.35,-65.71,0.1233,-0.9868,-0.1311,0.118,0.033,0.042,-7.19,-97.96,0.09,0.12,0.03
9711,1482.78,1506.96,1497.29,-0.4868,0.7573,0.4087,-1.006,-0.275,-1.144,29.55,61.50,-0.2236,-0.9338,0.4192,0.620,-0.045,-0.268,12.35,-65.70,0.1282,-0.9910,-0.1396,-0.233,-0.043,-0.172,-7.20,-97.97,0.09,0.13,0.03
9725,1477.95,1471.50,1446.52,-0.4885,0.7549,0.4038,-0.884,-0.046,-1.052,29.55,61.49,-0.2253,-0.9272,0.4155,-0.281,0.000,0.205,12.35,-65.70,0.1274,-0.9873,-0.1399,0.041,0.018,-0.080,-7.20,-97.97,0.09,0.13,0.03
9750,1504.54,1482.78,1477.95,-0.4861,0.7566,0.4011,-0.395,0.138,-0.228,29.56,61.49,-0.2234,-0.9297,0.4199,0.452,0.061,-0.283,12.35,-65.69,0.1323,-0.9907,-0.1426,-0.203,-0.074,-0.034,-7.21,-97.98,0.09,0.13,0.03
9764,1500.51,1554.51,1481.98,-0.4871,0.7563,0.4041,-0.029,0.229,0.108,29.56,61.50,-0.2209,-0.9314,0.4163,0.070,0.092,-0.008,12.35,-65.70,0.1292,-0.9883,-0.1396,-0.004,-0.012,-0.065,-7.21,-97.98,0.09,0.12,0.03
9789,1484.40,1432.82,1481.98,-0.4844,0.7583,0.4041,0.124,0.031,0.291,29.56,61.51,-0.2246,-0.9290,0.4136,0.070,0.046,-0.054,12.35,-65.70,0.1277,-0.9827,-0.1409,-0.188,-0.119,-0.004,-7.22,-97.99,0.09,0.12,0.03
9803,1495.68,1477.14,1433.63,-0.4907,0.7593,0.4041,0.185,0.733,0.123,29.57,61.52,-0.2224,-0.9343,0.4165,0.482,-0.015,-0.100,12.35,-65.70,0.1260,-0.9885,-0.1433,0.057,-0.043,0.057,-7.22,-98.00,0.09,0.12,0.03
9827,1471.50,1520.66,1508.57,-0.4905,0.7549,0.4031,-0.639,0.183,-1.159,29.58,61.52,-0.2246,-0.9282,0.4128,-0.419,0.000,0.175,12.35,-65.72,0.1248,-0.9897,-0.1309,-0.035,0.033,-0.004,-7.21,-97.99,0.09,0.12,0.03
9842,1470.70,1486.81,1496.48,-0.4910,0.7568,0.4060,-1.632,0.061,-1.006,29.58,61.50,-0.2246,-0.9297,0.4165,0.452,0.000,-0.222,12.35,-65.71,0.1230,-0.9883,-0.1372,-0.127,-0.012,-0.065,-7.21,-97.99,0.09,0.12,0.03
9866,1501.32,1502.93,1482.78,-0.4846,0.7578,0.4019,-0.426,-0.153,-0.930,29.58,61.50,-0.2241,-0.9233,0.4224,-0.266,-0.076,0.297,12.35,-65.71,0.1299,-0.9878,-0.1331,0.438,0.079,0.057,-7.21,-97.97,0.08,0.11,0.03
9880,1494.87,1515.82,1491.65,-0.4880,0.7527,0.4114,-0.578,-0.259,-0.716,29.58,61.49,-0.2241,-0.9316,0.4160,0.513,-0.122,-0.039,12.35,-65.71,0.1289,-0.9846,-0.1357,-0.157,0.033,-0.019,-7.22,-97.97,0.08,0.11,0.03
9905,1467.47,1448.94,1458.61,-0.4871,0.7537,0.3992,-0.197,-0.702,-0.380,29.56,61.50,-0.2205,-0.9287,0.4172,-0.220,0.077,0.175,12.35,-65.72,0.1267,-0.9880,-0.1404,0.133,0.033,0.103,-7.21,-97.97,0.08,0.11,0.03
9919,1505.35,1462.64,1469.89,-0.4858,0.7542,0.4026,-0.242,0.107,0.154,29.56,61.50,-0.2183,-0.9272,0.4124,-0.526,0.138,0.022,12.35,-65.73,0.1267,-0.9888,-0.1394,-0.127,0.064,0.011,-7.21,-97.97,0.08,0.11,0.03
9944,1482.78,1530.33,1494.87,-0.4834,0.7581,0.4075,0.597,-0.214,0.169,29.55,61.52,-0.2202,-0.9290,0.4165,-0.480,0.138,0.037,12.35,-65.75,0.1255,-0.9885,-0.1350,0.041,0.003,0.042,-7.21,-97.97,0.08,0.11,0.03
9958,1460.22,1467.47,1469.89,-0.4875,0.7546,0.3953,0.490,0.412,0.047,29.56,61.54,-0.2244,-0.9307,0.4138,-0.755,0.061,0.144,12.35,-65.76,0.1272,-0.9836,-0.1331,-0.081,-0.043,0.011,-7.22,-97.96,0.08,0.11,0.03
9983,1504.54,1495.68,1525.49,-0.4861,0.7581,0.4058,-0.105,0.473,0.352,29.57,61.55,-0.2229,-0.9319,0.4170,0.589,0.077,-0.131,12.35,-65.75,0.1226,-0.9888,-0.1406,-0.020,-0.089,-0.050,-7.21,-97.97,0.08,0.11,0.03
9997,1491.65,1522.27,1490.04,-0.4827,0.7546,0.3948,0.307,0.076,0.444,29.57,61.57,-0.2239,-0.9294,0.4160,-0.098,-0.045,0.190,12.35,-65.75,0.1233,-0.9868,-0.1375,0.133,0.003,0.088,-7.21,-97.96,0.08,0.11,0.03
10021,1490.04,1466.67,1449.74,-0.4893,0.7571,0.4033,-1.357,-0.030,-0.961,29.58,61.54,-0.2222,-0.9343,0.4199,0.757,-0.091,-0.268,12.35,-65.74,0.1255,-0.9868,-0.1399,-0.203,-0.058,0.072,-7.21,-97.97,0.08,0.11,0.03
10036,1436.04,1469.08,1480.37,-0.4854,0.7559,0.3977,-1.372,-0.443,-2.182,29.57,61.54,-0.2241,-0.9280,0.4177,0.116,-0.152,0.190,12.35,-65.74,0.1257,-0.9839,-0.1423,0.011,0.140,0.027,-7.21,-97.98,0.08,0.11,0.03
10060,1469.89,1515.82,1501.32,-0.4895,0.7512,0.4060,-2.533,-0.153,-2.716,29.57,61.48,-0.2212,-0.9275,0.4146,0.711,-0.061,-0.176,12.35,-65.72,0.1311,-0.9888,-0.1365,-0.401,-0.074,-0.095,-7.22,-97.98,0.08,0.11,0.03
10074,1484.40,1457.00,1482.78,-0.4893,0.7546,0.4045,-2.212,-0.672,-1.510,29.57,61.45,-0.2200,-0.9277,0.4221,0.146,0.046,0.022,12.34,-65.72,0.1235,-0.9863,-0.1411,0.194,0.140,-0.004,-7.21,-97.98,0.08,0.11,0.03
10099,1501.32,1523.88,1506.15,-0.4902,0.7546,0.4058,0.475,-0.320,0.505,29.56,61.47,-0.2256,-0.9285,0.4177,-0.159,0.077,-0.146,12.35,-65.72,0.1279,-0.9902,-0.1394,-0.066,0.079,0.103,-7.21,-97.99,0.08,0.11,0.03
10113,1486.81,1518.24,1482.78,-0.4880,0.7568,0.4053,2.506,0.550,2.475,29.57,61.51,-0.2244,-0.9287,0.4192,0.284,0.092,-0.176,12.35,-65.72,0.1260,-0.9888,-0.1372,0.209,0.033,-0.095,-7.21,-97.98,0.08,0.11,0.03
10137,1478.75,1457.00,1448.13,-0.4873,0.7524,0.4036,1.956,0.260,2.169,29.58,61.57,-0.2227,-0.9258,0.4124,-0.052,-0.061,0.037,12.35,-65.72,0.1252,-0.9871,-0.1318,-0.142,0.018,0.027,-7.21,-97.98,0.08,0.10,0.03
10152,1502.93,1471.50,1449.74,-0.4854,0.7566,0.3989,0.536,-0.137,0.566,29.58,61.59,-0.2246,-0.9329,0.4189,0.558,-0.045,-0.344,12.35,-65.72,0.1248,-0.9915,-0.1418,-0.279,0.003,-0.004,-7.21,-97.98,0.08,0.10,0.03
10176,1477.14,1485.20,1481.17,-0.4834,0.7517,0.4009,-2.456,0.092,-3.357,29.58,61.53,-0.2239,-0.9277,0.4204,-0.510,-0.259,0.312,12.34,-65.73,0.1248,-0.9824,-0.1326,0.286,0.049,-0.004,-7.20,-97.97,0.08,0.10,0.03
10190,1455.38,1468.28,1457.00,-0.4880,0.7549,0.4053,-3.281,-0.122,-3.144,29.58,61.49,-0.2251,-0.9297,0.4165,0.452,-0.122,-0.329,12.35,-65.72,0.1274,-0.9905,-0.1443,-0.692,-0.135,0.042,-7.21,-97.99,0.07,0.10,0.03
10215,1482.78,1532.75,1483.59,-0.4912,0.7588,0.4016,-0.151,-0.580,-0.793,29.57,61.50,-0.2195,-0.9287,0.4199,-0.953,-0.030,0.129,12.34,-65.75,0.1250,-0.9854,-0.1411,0.194,0.033,0.134,-7.21,-97.99,0.07,0.10,0.03
10229,1482.78,1534.36,1506.96,-0.4846,0.7539,0.4048,0.490,0.275,0.017,29.57,61.51,-0.2263,-0.9341,0.4163,-0.922,0.092,0.053,12.34,-65.76,0.1223,-0.9861,-0.1428,-0.157,-0.058,0.134,-7.20,-97.99,0.07,0.10,0.03
10254,1481.98,1436.85,1436.85,-0.4905,0.7615,0.4036,2.078,0.489,2.261,29.59,61.58,-0.2217,-0.9285,0.4260,-0.373,0.000,-0.207,12.34,-65.76,0.1230,-0.9893,-0.1421,-0.295,0.003,-0.004,-7.20,-98.00,0.07,0.10,0.03
10268,1501.32,1472.31,1456.19,-0.4858,0.7595,0.4016,2.017,0.565,2.154,29.59,61.61,-0.2253,-0.9255,0.4114,-0.510,-0.106,0.190,12.35,-65.78,0.1235,-0.9871,-0.1353,-0.249,-0.165,0.210,-7.20,-98.00,0.07,0.10,0.03
10293,1475.53,1482.78,1482.78,-0.4919,0.7622,0.4036,-0.731,-0.366,-0.854,29.59,61.61,-0.2214,-0.9299,0.4146,1.215,-0.168,-0.100,12.34,-65.75,0.1238,-0.9922,-0.1426,-0.325,-0.165,-0.050,-7.20,-98.01,0.07,0.10,0.03
10307,1458.61,1461.03,1457.00,-0.4851,0.7524,0.3955,-3.586,-0.687,-3.953,29.58,61.57,-0.2205,-0.9297,0.4204,-0.068,-0.213,0.450,12.33,-65.75,0.1255,-0.9863,-0.1438,0.454,0.064,-0.019,-7.20,-98.01,0.07,0.10,0.03
10331,1475.53,1521.47,1514.21,-0.4912,0.7566,0.4099,-5.220,-0.763,-4.945,29.56,61.44,-0.2227,-0.9302,0.4224,1.642,-0.274,-0.299,12.33,-65.71,0.1279,-0.9873,-0.1436,-0.371,0.018,0.027,-7.20,-98.03,0.07,0.10,0.04
10346,1431.21,1510.99,1488.42,-0.4917,0.7559,0.4077,-2.914,-0.382,-3.037,29.56,61.41,-0.2214,-0.9277,0.4243,0.497,-0.259,0.205,12.32,-65.70,0.1292,-0.9915,-0.1501,0.484,0.171,0.027,-7.20,-98.03,0.07,0.10,0.04
10370,1488.42,1462.64,1472.31,-0.4924,0.7542,0.4104,1.055,-0.015,0.673,29.57,61.43,-0.2222,-0.9287,0.4180,0.421,-0.061,-0.192,12.32,-65.69,0.1292,-0.9858,-0.1421,-0.325,0.018,-0.080,-7.20,-98.04,0.06,0.10,0.04
10384,1484.40,1500.51,1461.03,-0.4927,0.7546,0.4119,2.353,-0.549,2.581,29.57,61.47,-0.2180,-0.9272,0.4226,-0.464,0.245,-0.131,12.32,-65.69,0.1260,-0.9885,-0.1470,0.026,0.003,-0.050,-7.20,-98.05,0.06,0.10,0.04
10409,1485.20,1478.75,1479.56,-0.4885,0.7554,0.4026,3.086,-0.626,3.452,29.55,61.55,-0.2244,-0.9324,0.4207,-1.900,0.840,0.098,12.34,-65.74,0.1223,-0.9871,-0.1458,0.835,0.033,-0.126,-7.20,-98.04,0.06,0.11,0.04
10423,1478.75,1465.86,1473.92,-0.4741,0.7439,0.3979,5.406,-0.534,4.765,29.54,61.63,-0.2261,-0.9285,0.4187,0.070,0.581,0.098,12.35,-65.73,0.1294,-0.9680,-0.1282,1.293,0.354,-0.111,-7.20,-98.01,0.07,0.11,0.04
10448,1490.84,1515.82,1495.68,-0.4773,0.7644,0.4082,5.238,1.680,4.627,29.57,61.76,-0.2322,-0.9268,0.4141,3.703,-0.931,-0.283,12.34,-65.65,0.1304,-0.9863,-0.1353,-1.516,-0.425,0.240,-7.22,-98.04,0.07,0.11,0.04
10462,1468.28,1509.38,1473.11,-0.4922,0.7776,0.4043,0.964,0.458,1.482,29.57,61.79,-0.2249,-0.9373,0.4280,4.161,-0.671,-0.955,12.33,-65.59,0.1289,-1.0034,-0.1375,-1.027,0.079,-0.126,-7.22,-98.05,0.07,0.11,0.04
10486,1490.84,1497.29,1456.19,-0.4856,0.7510,0.3965,-12.181,-2.076,-11.983,29.52,61.51,-0.2190,-0.9253,0.4194,-4.083,0.779,0.282,12.34,-65.69,0.1245,-0.9827,-0.1404,0.163,0.201,-0.157,-7.21,-98.05,0.07,0.11,0.04
10501,1490.04,1481.17,1469.08,-0.4983,0.7510,0.3962,-16.365,-2.122,-16.625,29.51,61.29,-0.2148,-0.9346,0.4175,-2.174,1.130,-1.184,12.35,-65.72,0.1218,-0.9924,-0.1438,-0.585,-0.058,0.011,-7.20,-98.06,0.07,0.11,0.04
10525,1457.00,1482.78,1486.81,-0.4956,0.7449,0.4070,-4.075,-0.763,-3.480,29.51,61.19,-0.2263,-0.9285,0.4050,-1.304,-0.595,1.182,12.34,-65.77,0.1211,-0.9873,-0.1333,1.370,0.415,-0.202,-7.19,-98.02,0.08,0.12,0.04
10539,1461.03,1426.37,1464.25,-0.4944,0.7449,0.4172,8.093,1.084,8.856,29.53,61.30,-0.2266,-0.9287,0.4194,4.100,-0.855,0.129,12.33,-65.71,0.1262,-0.9900,-0.1392,0.331,-0.180,0.088,-7.19,-98.02,0.08,0.12,0.04
10564,1487.62,1534.36,1500.51,-0.4756,0.7546,0.4009,17.742,2.229,18.322,29.58,61.74,-0.2310,-0.9263,0.4207,0.268,-0.335,0.724,12.33,-65.70,0.1306,-0.9824,-0.1279,0.179,-0.043,0.042,-7.20,-98.00,0.08,0.12,0.04
10578,1469.08,1495.68,1503.74,-0.4751,0.7593,0.3965,12.597,1.451,12.581,29.59,61.93,-0.2268,-0.9246,0.4136,-2.205,0.626,-0.237,12.35,-65.73,0.1252,-0.9822,-0.1382,-0.585,0.003,0.027,-7.20,-98.01,0.08,0.12,0.04
10603,1482.78,1485.20,1457.00,-0.4863,0.7725,0.3928,-5.525,-0.595,-5.464,29.57,61.82,-0.2197,-0.9314,0.4167,-2.526,0.779,-0.482,12.36,-65.80,0.1243,-0.9978,-0.1479,-0.661,-0.119,0.057,-7.20,-98.03,0.08,0.12,0.04
10617,1486.81,1495.68,1503.74,-0.4927,0.7625,0.3975,-13.678,-1.664,-14.228,29.55,61.64,-0.2122,-0.9233,0.4065,-1.090,0.138,0.434,12.36,-65.82,0.1260,-1.0078,-0.1411,0.270,0.003,0.042,-7.20,-98.03,0.08,0.12,0.04
