timestamp_ms,EMG_Quad_mV,EMG_Ham_mV,EMG_Calf_mV,ACC_Quad_X_g,ACC_Quad_Y_g,ACC_Quad_Z_g,GYR_Quad_X_dps,GYR_Quad_Y_dps,GYR_Quad_Z_dps,Pitch_Quad_deg,Roll_Quad_deg,ACC_Ham_X_g,ACC_Ham_Y_g,ACC_Ham_Z_g,GYR_Ham_X_dps,GYR_Ham_Y_dps,GYR_Ham_Z_dps,Pitch_Ham_deg,Roll_Ham_deg,ACC_Calf_X_g,ACC_Calf_Y_g,ACC_Calf_Z_g,GYR_Calf_X_dps,GYR_Calf_Y_dps,GYR_Calf_Z_dps,Pitch_Calf_deg,Roll_Calf_deg,Angle_Quad_Ham_deg,Angle_Quad_Calf_deg,Angle_Ham_Calf_deg
4,3300.00,3300.00,3300.00,-0.2437,0.8582,0.6755,-4.179,4.609,0.462,13.15,49.62,0.0007,-0.8086,0.5884,-1.391,0.659,0.361,0.07,-54.15,0.0000,0.0000,0.0000,0.000,0.000,0.000,0.00,0.00,0.10,-0.04,-0.14
18,3300.00,3300.00,3300.00,-0.2405,0.8594,0.6870,-2.943,3.082,0.584,13.17,49.61,0.0054,-0.8118,0.5930,-2.124,0.628,0.239,0.08,-54.17,0.0000,0.0000,0.0000,0.000,0.000,0.000,0.00,0.00,0.19,-0.08,-0.27
32,3300.00,3300.00,3300.00,-0.2356,0.8594,0.6814,-3.767,2.212,0.462,13.18,49.60,-0.1450,-0.8208,0.3774,-13.284,-21.326,18.743,-0.05,-54.58,0.0000,0.0000,0.0000,0.000,0.000,0.000,0.00,0.00,0.27,-0.11,-0.38
57,3300.00,3300.00,3300.00,-0.2275,0.8398,0.6956,-2.118,6.776,3.072,13.32,49.56,0.0122,-0.8308,0.5312,10.960,-21.692,-0.265,-0.58,-54.38,0.0000,0.0000,0.0000,0.000,0.000,0.000,0.00,0.00,0.29,-0.15,-0.44
71,3300.00,3300.00,3300.00,-0.2417,0.8567,0.6929,1.363,7.494,3.973,13.40,49.61,0.0056,-0.8376,0.6191,17.555,-19.418,-4.127,-0.85,-54.11,0.0000,0.0000,0.0000,0.000,0.000,0.000,0.00,0.00,0.28,-0.20,-0.48
85,3300.00,3300.00,3300.00,-0.2280,0.8494,0.7004,3.149,9.769,2.630,13.51,49.67,0.0234,-0.8240,0.5979,11.830,-7.509,-0.570,-0.96,-53.94,0.0000,0.0000,0.0000,0.000,0.000,0.000,0.00,0.00,0.27,-0.25,-0.52
110,3300.00,3300.00,3300.00,-0.2375,0.8508,0.6890,-0.255,8.151,1.072,13.68,49.69,0.0283,-0.8105,0.5784,-0.231,-1.799,-0.097,-1.02,-53.96,0.0000,0.0000,0.0000,0.000,0.000,0.000,0.00,0.00,0.23,-0.31,-0.54
124,0.00,3300.00,1667.33,-0.2429,0.8572,0.6877,-3.126,8.624,-0.241,13.77,49.68,0.0286,-0.8198,0.5925,-0.750,2.063,-0.524,-1.00,-53.98,0.0000,0.0000,0.0000,0.000,0.000,0.000,0.00,0.00,0.20,-0.37,-0.57
138,755.09,3300.00,1897.80,-0.2405,0.8613,0.6860,-3.721,4.731,-1.645,13.81,49.66,0.0312,-0.8091,0.5962,-0.643,5.666,-0.158,-0.94,-53.98,0.0000,0.0000,0.0000,0.000,0.000,0.000,0.00,0.00,0.17,-0.43,-0.59
163,3300.00,1419.93,3300.00,-0.2568,0.8569,0.6851,-6.332,-0.933,-1.920,13.77,49.54,0.0059,-0.8054,0.5857,2.838,9.056,-1.929,-0.71,-53.91,0.0000,0.0000,0.0000,0.000,0.000,0.000,0.00,0.00,0.16,-0.48,-0.63
177,431.14,0.00,0.00,-0.2527,0.8584,0.6770,-4.210,-0.598,-2.103,13.75,49.53,0.0059,-0.8081,0.5891,2.304,8.475,-0.937,-0.58,-53.88,0.0000,0.0000,0.0000,0.000,0.000,0.000,0.00,0.00,0.16,-0.53,-0.68
191,0.00,0.00,0.00,-0.2434,0.8596,0.6831,-4.179,-2.720,-1.141,13.69,49.51,-0.0178,-0.8091,0.5830,0.991,8.643,0.300,-0.43,-53.87,0.0000,0.0000,0.0000,0.000,0.000,0.000,0.00,0.00,0.17,-0.57,-0.74
216,3300.00,0.00,253.85,-0.2502,0.8542,0.6836,-1.859,-1.727,0.630,13.63,49.50,-0.0017,-0.8149,0.5940,-0.216,2.888,-1.013,-0.35,-53.88,0.0000,0.0000,0.0000,0.000,0.000,0.000,0.00,0.00,0.19,-0.60,-0.79
230,3300.00,0.00,0.00,-0.2488,0.8586,0.6763,-1.156,-1.651,0.156,13.59,49.53,-0.0010,-0.8081,0.5903,2.212,3.575,-2.937,-0.29,-53.84,0.0000,0.0000,0.0000,0.000,0.000,0.000,0.00,0.00,0.22,-0.63,-0.85
244,1195.09,0.00,0.00,-0.2412,0.8569,0.6816,-1.568,1.402,0.110,13.59,49.55,0.0078,-0.8103,0.5837,5.601,0.079,-3.990,-0.29,-53.77,0.0000,0.0000,0.0000,0.000,0.000,0.000,0.00,0.00,0.25,-0.65,-0.90
269,3300.00,3081.61,3300.00,-0.2368,0.8638,0.6777,0.966,1.799,-0.699,13.60,49.62,0.0125,-0.8062,0.5796,3.036,1.193,-1.730,-0.27,-53.71,0.0000,0.0000,0.0000,0.000,0.000,0.000,0.00,0.00,0.28,-0.68,-0.95
283,3300.00,3300.00,3300.00,-0.2395,0.8611,0.6841,2.325,2.257,-0.485,13.61,49.69,0.0149,-0.8037,0.5896,1.647,1.407,-2.005,-0.26,-53.69,0.0000,0.0000,0.0000,0.000,0.000,0.000,0.00,0.00,0.30,-0.70,-1.00
297,3300.00,3300.00,3300.00,-0.2366,0.8574,0.6860,1.271,2.838,-0.119,13.62,49.74,0.0071,-0.8081,0.5706,0.487,0.811,-1.227,-0.26,-53.70,0.0000,0.0000,0.0000,0.000,0.000,0.000,0.00,0.00,0.32,-0.72,-1.04
322,1736.63,3183.96,3300.00,-0.2385,0.8538,0.6892,-0.454,2.181,0.675,13.64,49.76,0.0078,-0.8174,0.5874,-0.643,3.529,-0.311,-0.17,-53.73,0.0000,0.0000,0.0000,0.000,0.000,0.000,0.00,0.00,0.35,-0.74,-1.09
336,3300.00,3300.00,3300.00,-0.2397,0.8462,0.6897,-0.881,2.883,1.011,13.66,49.77,-0.0061,-0.8196,0.5955,-3.483,4.857,2.376,-0.10,-53.79,0.0000,0.0000,0.0000,0.000,0.000,0.000,0.00,0.00,0.37,-0.77,-1.14
350,3300.00,3300.00,3300.00,-0.2400,0.8562,0.6855,-1.034,2.776,1.546,13.67,49.78,0.0044,-0.8105,0.5823,-0.887,0.506,-1.120,-0.09,-53.81,0.0000,0.0000,0.0000,0.000,0.000,0.000,0.00,0.00,0.40,-0.79,-1.19
375,0.00,431.14,0.00,-0.2434,0.8582,0.6943,-2.698,4.212,2.248,13.75,49.74,0.0039,-0.8135,0.5840,-4.841,-0.868,0.132,-0.12,-53.93,0.0000,0.0000,0.0000,0.000,0.000,0.000,0.00,0.00,0.42,-0.81,-1.23
389,0.00,1278.90,0.00,-0.2371,0.8613,0.7000,-3.385,3.204,2.706,13.76,49.72,0.0017,-0.8081,0.5803,-3.208,-0.807,0.651,-0.13,-53.99,0.0000,0.0000,0.0000,0.000,0.000,0.000,0.00,0.00,0.43,-0.84,-1.27
403,2038.83,2610.18,1753.55,-0.2373,0.8606,0.6917,-2.652,1.601,2.981,13.75,49.71,0.0088,-0.8157,0.5876,-5.147,0.170,1.934,-0.13,-54.06,0.0000,0.0000,0.0000,0.000,0.000,0.000,0.00,0.00,0.44,-0.86,-1.30
428,329.60,0.00,0.00,-0.2371,0.8416,0.6919,-3.767,1.204,1.973,13.75,49.64,0.0093,-0.8245,0.5820,-0.185,0.552,-0.921,-0.13,-54.08,0.0000,0.0000,0.0000,0.000,0.000,0.000,0.00,0.00,0.45,-0.88,-1.33
442,0.00,0.00,0.00,-0.2393,0.8411,0.6877,-1.752,2.410,0.401,13.75,49.64,0.0085,-0.8206,0.5894,3.235,0.903,-2.921,-0.12,-54.04,0.0000,0.0000,0.0000,0.000,0.000,0.000,0.00,0.00,0.46,-0.90,-1.36
456,0.00,0.00,0.00,-0.2390,0.8538,0.6934,-2.210,0.914,-0.363,13.74,49.63,0.0049,-0.8149,0.5720,3.830,0.720,-2.433,-0.11,-54.01,0.0000,0.0000,0.0000,0.000,0.000,0.000,0.00,0.00,0.48,-0.91,-1.39
480,3300.00,0.00,0.00,-0.2402,0.8625,0.6807,-4.179,3.357,-0.378,13.79,49.57,0.0132,-0.8022,0.5818,2.075,2.155,-2.082,-0.08,-53.96,0.0000,0.0000,0.0000,0.000,0.000,0.000,0.00,0.00,0.49,-0.93,-1.42
495,505.27,0.00,0.00,-0.2385,0.8665,0.6819,-4.194,4.746,-0.134,13.82,49.56,0.0115,-0.8096,0.5837,0.395,1.605,-1.837,-0.06,-53.96,0.0000,0.0000,0.0000,0.000,0.000,0.000,0.00,0.00,0.50,-0.95,-1.45
509,0.00,0.00,0.00,-0.2427,0.8625,0.6880,-1.049,4.715,0.110,13.86,49.58,0.0222,-0.8118,0.5842,4.884,-8.334,-6.753,-0.21,-53.89,0.0000,0.0000,0.0000,0.000,0.000,0.000,0.00,0.00,0.49,-0.98,-1.47
533,3300.00,199.05,3300.00,-0.2407,0.8574,0.6907,-1.278,5.067,1.149,13.95,49.58,0.0127,-0.8062,0.5857,3.830,-8.944,-3.028,-0.43,-53.81,0.0000,0.0000,0.0000,0.000,0.000,0.000,0.00,0.00,0.46,-1.00,-1.47
548,3300.00,0.00,502.86,-0.2393,0.8567,0.6807,-0.500,3.143,1.027,13.96,49.61,-0.0056,-0.8079,0.5776,3.891,-9.723,-1.959,-0.55,-53.76,0.0000,0.0000,0.0000,0.000,0.000,0.000,0.00,0.00,0.43,-1.03,-1.46
562,946.08,0.00,0.00,-0.2395,0.8586,0.6782,-0.362,6.120,0.630,14.02,49.65,0.0046,-0.8145,0.5742,5.418,-13.983,-1.608,-0.74,-53.71,0.0000,0.0000,0.0000,0.000,0.000,0.000,0.00,0.00,0.38,-1.06,-1.44
586,1881.69,0.00,1856.70,-0.2373,0.8662,0.6843,1.348,5.235,0.797,14.11,49.72,0.0139,-0.8154,0.5874,13.220,-23.860,-2.372,-1.31,-53.40,0.0000,0.0000,0.0000,0.000,0.000,0.000,0.00,0.00,0.29,-1.09,-1.38
601,3300.00,0.00,3300.00,-0.2412,0.8533,0.6792,0.355,7.433,1.118,14.18,49.76,0.0325,-0.8027,0.5898,19.449,-28.196,-6.677,-1.72,-53.14,0.0000,0.0000,0.0000,0.000,0.000,0.000,0.00,0.00,0.17,-1.12,-1.29
615,3300.00,0.00,817.14,-0.2393,0.8521,0.6792,0.386,9.265,1.240,14.27,49.80,0.0283,-0.8228,0.5867,17.968,-17.860,-7.440,-1.96,-52.91,0.0000,0.0000,0.0000,0.000,0.000,0.000,0.00,0.00,0.04,-1.16,-1.20
639,0.00,0.00,0.00,-0.2417,0.8462,0.6951,-0.820,6.746,1.179,14.39,49.80,0.0112,-0.8088,0.5952,18.655,-12.792,-8.066,-2.24,-52.48,0.0000,0.0000,0.0000,0.000,0.000,0.000,0.00,0.00,-0.12,-1.20,-1.09
653,0.00,0.00,0.00,-0.2454,0.8455,0.6865,6.065,10.105,-2.363,14.50,49.90,0.0164,-0.8054,0.5967,13.204,-11.280,-5.792,-2.37,-52.32,0.0000,0.0000,0.0000,0.000,0.000,0.000,0.00,0.00,-0.27,-1.25,-0.98
668,2303.96,0.00,0.00,-0.2595,0.8530,0.6917,4.264,7.311,-1.111,14.58,49.99,0.0195,-0.7971,0.5889,9.723,-11.021,-4.219,-2.50,-52.21,0.0000,0.0000,0.0000,0.000,0.000,0.000,0.00,0.00,-0.44,-1.30,-0.87
692,0.00,0.00,0.00,-0.2485,0.8477,0.6860,2.065,14.532,-0.851,14.89,50.06,0.0076,-0.7996,0.6055,10.441,-10.532,-4.662,-2.71,-51.97,0.0000,0.0000,0.0000,0.000,0.000,0.000,0.00,0.00,-0.62,-1.37,-0.75
706,0.00,0.00,0.00,-0.2551,0.8574,0.6909,4.432,13.799,-1.050,15.05,50.14,0.0273,-0.7964,0.6121,11.555,-9.036,-4.646,-2.82,-51.82,0.0000,0.0000,0.0000,0.000,0.000,0.000,0.00,0.00,-0.82,-1.45,-0.63
720,0.00,0.00,0.00,-0.2488,0.8547,0.6794,1.073,12.151,-0.546,15.17,50.18,0.0244,-0.7957,0.6091,7.586,-6.105,-2.585,-2.87,-51.73,0.0000,0.0000,0.0000,0.000,0.000,0.000,0.00,0.00,-1.01,-1.53,-0.52
745,0.00,0.00,0.00,-0.2617,0.8748,0.6692,8.996,19.189,-1.233,15.59,50.44,0.0259,-0.7905,0.6089,2.288,-5.494,-1.089,-2.98,-51.69,0.0000,0.0000,0.0000,0.000,0.000,0.000,0.00,0.00,-1.22,-1.63,-0.41
759,0.00,0.00,0.00,-0.2539,0.8569,0.6746,5.836,17.754,-0.531,15.79,50.55,0.0251,-0.7925,0.6096,-2.735,-4.120,1.231,-3.00,-51.74,0.0000,0.0000,0.0000,0.000,0.000,0.000,0.00,0.00,-1.44,-1.74,-0.30
773,0.00,0.00,0.00,-0.2593,0.8569,0.6663,3.119,21.509,-0.775,16.04,50.63,0.0303,-0.7942,0.6128,-4.689,-2.288,2.453,-3.01,-51.82,0.0000,0.0000,0.0000,0.000,0.000,0.000,0.00,0.00,-1.66,-1.86,-0.20
798,3300.00,0.00,369.89,-0.2559,0.8669,0.6484,-0.591,36.944,-0.973,16.87,50.67,0.0435,-0.7927,0.6101,-6.735,0.414,3.109,-2.99,-51.99,0.0000,0.0000,0.0000,0.000,0.000,0.000,0.00,0.00,-1.92,-2.03,-0.11
812,55.60,0.00,0.00,-0.2500,0.8672,0.6641,2.538,37.555,-2.561,17.31,50.74,0.0413,-0.7993,0.6108,-6.261,0.598,2.651,-2.97,-52.09,0.0000,0.0000,0.0000,0.000,0.000,0.000,0.00,0.00,-2.19,-2.21,-0.03
826,0.00,0.00,0.00,-0.2456,0.8577,0.6902,0.141,33.067,-0.744,17.68,50.75,0.0364,-0.8042,0.6084,-6.826,0.521,3.659,-2.94,-52.20,0.0000,0.0000,0.0000,0.000,0.000,0.000,0.00,0.00,-2.46,-2.42,0.05
850,3300.00,822.78,3254.87,-0.2578,0.8623,0.6733,-2.775,19.922,0.904,18.07,50.71,0.0334,-0.8069,0.6001,-3.895,0.384,2.590,-2.91,-52.32,0.0000,0.0000,0.0000,0.000,0.000,0.000,0.00,0.00,-2.75,-2.63,0.12
865,3300.00,40.29,680.95,-0.2588,0.8574,0.6697,-1.080,16.547,0.507,18.20,50.72,0.0369,-0.8079,0.6033,-0.124,0.827,0.132,-2.88,-52.34,0.0000,0.0000,0.0000,0.000,0.000,0.000,0.00,0.00,-3.02,-2.84,0.18
879,321.54,0.00,0.00,-0.2573,0.8569,0.6646,-0.561,12.502,1.072,18.28,50.74,0.0327,-0.8040,0.5979,-0.292,0.506,0.285,-2.86,-52.36,0.0000,0.0000,0.0000,0.000,0.000,0.000,0.00,0.00,-3.27,-3.04,0.23
903,0.00,324.76,0.00,-0.2688,0.8623,0.6675,-1.446,17.082,0.446,18.60,50.74,0.0315,-0.7910,0.5957,0.319,-0.135,0.437,-2.84,-52.37,0.0000,0.0000,0.0000,0.000,0.000,0.000,0.00,0.00,-3.53,-3.24,0.28
918,3237.95,698.68,3297.58,-0.2751,0.8547,0.6731,3.836,11.509,-0.103,18.67,50.81,0.0291,-0.7942,0.6038,-0.154,-0.364,0.789,-2.82,-52.38,0.0000,0.0000,0.0000,0.000,0.000,0.000,0.00,0.00,-3.77,-3.44,0.33
932,3300.00,193.41,2112.16,-0.2756,0.8635,0.6970,3.607,8.181,0.080,18.70,50.87,0.0222,-0.7976,0.6038,-1.040,-0.242,1.231,-2.79,-52.40,0.0000,0.0000,0.0000,0.000,0.000,0.000,0.00,0.00,-4.00,-3.63,0.37
956,0.00,0.00,0.00,-0.2708,0.8613,0.6765,4.309,-0.765,1.454,18.58,50.99,0.0232,-0.8015,0.6008,0.029,0.384,0.468,-2.76,-52.42,0.0000,0.0000,0.0000,0.000,0.000,0.000,0.00,0.00,-4.20,-3.79,0.40
971,0.00,938.02,1177.36,-0.2729,0.8572,0.6768,6.706,-2.903,1.683,18.45,51.10,0.0237,-0.8030,0.5938,-0.780,-0.105,0.621,-2.73,-52.45,0.0000,0.0000,0.0000,0.000,0.000,0.000,0.00,0.00,-4.37,-3.94,0.43
985,3300.00,1972.75,3300.00,-0.2734,0.8523,0.6682,10.615,-3.682,0.706,18.31,51.26,0.0220,-0.8020,0.6050,-0.643,-0.181,0.361,-2.70,-52.47,0.0000,0.0000,0.0000,0.000,0.000,0.000,0.00,0.00,-4.52,-4.06,0.46
1009,0.00,0.00,0.00,-0.2722,0.8577,0.6743,17.699,-7.468,-0.897,18.05,51.70,0.0217,-0.7976,0.5959,-3.132,-0.303,1.186,-2.68,-52.56,0.0000,0.0000,0.0000,0.000,0.000,0.000,0.00,0.00,-4.64,-4.16,0.48
1024,0.00,0.00,0.00,-0.2747,0.8567,0.6731,27.607,-11.376,-2.699,17.81,52.09,0.0244,-0.8020,0.6035,-4.277,-0.746,1.689,-2.66,-52.63,0.0000,0.0000,0.0000,0.000,0.000,0.000,0.00,0.00,-4.74,-4.23,0.50
1038,0.00,1780.95,1596.41,-0.2712,0.8594,0.6736,39.653,-17.804,-4.424,17.49,52.63,0.0193,-0.8025,0.5977,-5.223,-0.532,2.056,-2.64,-52.72,0.0000,0.0000,0.0000,0.000,0.000,0.000,0.00,0.00,-4.80,-4.28,0.52
1062,1714.07,202.27,953.33,-0.2625,0.8621,0.6643,45.012,-35.315,1.133,16.56,53.71,0.0188,-0.8079,0.6006,-5.666,-1.540,1.506,-2.65,-52.86,0.0000,0.0000,0.0000,0.000,0.000,0.000,0.00,0.00,-4.79,-4.26,0.54
1077,0.00,0.00,0.00,-0.2573,0.8545,0.6199,27.974,-27.147,3.057,16.12,54.11,0.0217,-0.8037,0.6003,-3.788,-1.021,0.208,-2.63,-52.92,0.0000,0.0000,0.0000,0.000,0.000,0.000,0.00,0.00,-4.76,-4.20,0.55
1091,0.00,979.12,0.00,-0.2427,0.8916,0.5964,6.722,-1.101,0.721,16.04,54.24,0.0269,-0.8025,0.6018,-0.322,0.613,-0.448,-2.60,-52.93,0.0000,0.0000,0.0000,0.000,0.000,0.000,0.00,0.00,-4.71,-4.15,0.56
1115,3300.00,3300.00,3300.00,-0.2593,0.8523,0.6511,-6.408,-3.254,4.721,15.91,54.06,0.0237,-0.8005,0.6003,-1.254,-0.379,0.300,-2.59,-52.97,0.0000,0.0000,0.0000,0.000,0.000,0.000,0.00,0.00,-4.66,-4.09,0.57
1129,3300.00,3300.00,3300.00,-0.2681,0.8687,0.6152,-6.088,-0.094,4.416,15.88,53.98,0.0244,-0.8003,0.5925,-1.788,-0.914,-0.204,-2.58,-53.00,0.0000,0.0000,0.0000,0.000,0.000,0.000,0.00,0.00,-4.61,-4.04,0.58
1144,3142.05,3300.00,3300.00,-0.2598,0.8887,0.6423,-0.576,5.005,1.683,15.90,53.98,0.0300,-0.7935,0.6030,-1.941,-0.013,0.193,-2.56,-53.03,0.0000,0.0000,0.0000,0.000,0.000,0.000,0.00,0.00,-4.57,-3.98,0.59
1168,3300.00,3300.00,3273.41,-0.2764,0.8723,0.6599,2.004,-4.063,1.301,15.77,54.01,0.0308,-0.8015,0.6008,-1.819,0.521,0.224,-2.53,-53.07,0.0000,0.0000,0.0000,0.000,0.000,0.000,0.00,0.00,-4.52,-3.93,0.59
1182,3300.00,3300.00,3300.00,-0.2732,0.8848,0.6477,0.065,0.166,-0.592,15.73,54.00,0.0283,-0.8037,0.5977,-1.544,0.643,0.865,-2.50,-53.10,0.0000,0.0000,0.0000,0.000,0.000,0.000,0.00,0.00,-4.46,-3.87,0.59
1197,3300.00,3300.00,3300.00,-0.2432,0.8560,0.6431,-8.332,3.967,-1.157,15.73,53.87,0.0247,-0.8025,0.5955,-1.361,-0.135,0.346,-2.48,-53.12,0.0000,0.0000,0.0000,0.000,0.000,0.000,0.00,0.00,-4.41,-3.82,0.59
1221,0.00,3300.00,1521.47,-0.2673,0.8818,0.6550,-31.080,14.685,5.790,16.04,53.11,0.0332,-0.8088,0.5820,0.884,-0.731,0.208,-2.49,-53.13,0.0000,0.0000,0.0000,0.000,0.000,0.000,0.00,0.00,-4.38,-3.79,0.59
1235,3300.00,3300.00,3300.00,-0.2627,0.8635,0.6509,-27.507,14.318,4.568,16.19,52.73,0.0332,-0.8069,0.5950,-1.910,-0.166,0.499,-2.48,-53.16,0.0000,0.0000,0.0000,0.000,0.000,0.000,0.00,0.00,-4.37,-3.78,0.59
1250,3300.00,3300.00,3300.00,-0.2620,0.8752,0.6272,-25.782,18.044,3.698,16.39,52.40,0.0273,-0.8049,0.5923,-1.696,1.086,-0.173,-2.45,-53.20,0.0000,0.0000,0.0000,0.000,0.000,0.000,0.00,0.00,-4.37,-3.78,0.59
1274,0.00,324.76,0.00,-0.2559,0.8650,0.6660,-34.179,25.326,4.401,16.94,51.58,0.0291,-0.8118,0.5913,-2.093,0.979,0.285,-2.41,-53.26,0.0000,0.0000,0.0000,0.000,0.000,0.000,0.00,0.00,-4.40,-3.82,0.58
1288,0.00,1018.61,0.00,-0.2588,0.8542,0.6643,-36.072,26.212,5.301,17.23,51.09,0.0244,-0.8157,0.5930,-1.452,0.613,0.468,-2.38,-53.30,0.0000,0.0000,0.0000,0.000,0.000,0.000,0.00,0.00,-4.45,-3.88,0.58
1303,0.00,1199.93,0.00,-0.2710,0.8403,0.6489,-17.080,26.776,-1.004,17.55,50.87,0.0220,-0.8167,0.5894,0.380,0.781,0.056,-2.34,-53.31,0.0000,0.0000,0.0000,0.000,0.000,0.000,0.00,0.00,-4.52,-3.95,0.57
1327,0.00,0.00,0.00,-0.2698,0.8650,0.6733,-14.820,28.761,-0.622,18.16,50.54,0.0229,-0.8047,0.5989,1.174,-0.425,-0.769,-2.33,-53.28,0.0000,0.0000,0.0000,0.000,0.000,0.000,0.00,0.00,-4.62,-4.06,0.56
1341,0.00,0.00,0.00,-0.2607,0.8611,0.6804,-22.271,31.952,0.233,18.51,50.26,0.0200,-0.8064,0.5984,1.281,-0.807,-0.234,-2.32,-53.27,0.0000,0.0000,0.0000,0.000,0.000,0.000,0.00,0.00,-4.74,-4.19,0.55
1356,0.00,0.00,0.00,-0.2932,0.8398,0.6968,0.905,20.685,-3.844,18.73,50.27,0.0208,-0.8098,0.5876,1.723,-1.082,-0.326,-2.31,-53.26,0.0000,0.0000,0.0000,0.000,0.000,0.000,0.00,0.00,-4.87,-4.33,0.54
1380,910.62,0.00,0.00,-0.2234,0.9014,0.4949,-14.988,35.311,-4.042,19.45,50.13,0.0173,-0.8137,0.5891,2.090,-0.502,-2.234,-2.30,-53.22,0.0000,0.0000,0.0000,0.000,0.000,0.000,0.00,0.00,-5.04,-4.51,0.53
1394,0.00,0.00,0.00,-0.2607,0.8582,0.6804,-15.370,42.013,-3.813,19.91,49.94,0.0178,-0.8049,0.5925,2.212,-0.715,0.193,-2.28,-53.20,0.0000,0.0000,0.0000,0.000,0.000,0.000,0.00,0.00,-5.22,-4.70,0.52
1408,0.00,0.00,0.00,-0.2944,0.8188,0.7327,-20.271,39.097,-1.966,20.36,49.63,0.0195,-0.8101,0.5959,-0.338,-1.005,0.224,-2.27,-53.21,0.0000,0.0000,0.0000,0.000,0.000,0.000,0.00,0.00,-5.43,-4.92,0.51
1433,3300.00,0.00,2848.72,-0.2920,0.8638,0.6807,-14.683,27.967,-1.737,20.92,49.32,0.0208,-0.7981,0.5955,3.006,-4.349,-0.173,-2.36,-53.14,0.0000,0.0000,0.0000,0.000,0.000,0.000,0.00,0.00,-5.66,-5.15,0.51
1447,2062.20,0.00,59.63,-0.2878,0.8560,0.6604,-18.454,27.952,0.339,21.19,49.12,0.0242,-0.8020,0.5942,-0.307,-2.196,-0.051,-2.37,-53.15,0.0000,0.0000,0.0000,0.000,0.000,0.000,0.00,0.00,-5.90,-5.40,0.51
1461,0.00,0.00,0.00,-0.2903,0.8496,0.6616,-19.996,30.578,-0.577,21.50,48.90,0.0171,-0.7966,0.5876,0.914,-2.685,-0.280,-2.38,-53.15,0.0000,0.0000,0.0000,0.000,0.000,0.000,0.00,0.00,-6.15,-5.64,0.51
1486,3300.00,265.13,3188.79,-0.2922,0.8508,0.6802,-26.561,35.418,2.462,22.22,48.31,0.0283,-0.8088,0.6042,1.464,-2.837,-0.677,-2.43,-53.12,0.0000,0.0000,0.0000,0.000,0.000,0.000,0.00,0.00,-6.43,-5.92,0.51
1500,3300.00,257.88,3300.00,-0.2932,0.8433,0.6733,-19.095,28.380,0.996,22.47,48.11,0.0269,-0.8030,0.5957,1.067,-4.257,-1.074,-2.47,-53.11,0.0000,0.0000,0.0000,0.000,0.000,0.000,0.00,0.00,-6.71,-6.20,0.51
1514,3300.00,182.93,1973.55,-0.2805,0.8486,0.6721,-10.943,21.570,-0.485,22.62,48.02,0.0354,-0.8137,0.5840,1.739,-4.547,-1.776,-2.53,-53.11,0.0000,0.0000,0.0000,0.000,0.000,0.000,0.00,0.00,-6.98,-6.46,0.52
1539,506.08,1023.44,1670.55,-0.2910,0.8430,0.6689,-10.897,20.822,0.920,22.97,47.83,0.0315,-0.8101,0.5920,2.365,-5.204,-3.028,-2.64,-53.07,0.0000,0.0000,0.0000,0.000,0.000,0.000,0.00,0.00,-7.27,-6.74,0.54
1553,3300.00,3013.11,3300.00,-0.2954,0.8408,0.6482,-10.042,21.815,-0.363,23.12,47.78,0.0190,-0.8044,0.5959,5.113,-9.769,-2.723,-2.74,-53.00,0.0000,0.0000,0.0000,0.000,0.000,0.000,0.00,0.00,-7.56,-7.00,0.56
1568,3300.00,3300.00,3300.00,-0.3015,0.8362,0.6741,-0.484,16.364,-0.348,23.20,47.84,0.0300,-0.8035,0.6150,2.762,-11.601,-2.097,-2.89,-52.96,0.0000,0.0000,0.0000,0.000,0.000,0.000,0.00,0.00,-7.84,-7.25,0.59
1592,2024.32,1237.00,1264.40,-0.2927,0.8440,0.6816,2.080,10.685,-1.630,23.30,47.96,0.0334,-0.8042,0.5940,0.777,-12.563,-1.166,-3.17,-52.95,0.0000,0.0000,0.0000,0.000,0.000,0.000,0.00,0.00,-8.13,-7.50,0.64
1607,2953.48,3013.11,3300.00,-0.3003,0.8623,0.6865,-1.568,0.380,1.133,23.15,48.01,0.0425,-0.8059,0.5857,-2.261,-11.647,0.453,-3.32,-53.00,0.0000,0.0000,0.0000,0.000,0.000,0.000,0.00,0.00,-8.40,-7.71,0.69
1631,3300.00,3300.00,3300.00,-0.2954,0.8596,0.6643,-1.889,-14.995,3.851,22.63,48.05,0.0332,-0.7959,0.6013,-1.559,-9.677,1.292,-3.52,-53.04,0.0000,0.0000,0.0000,0.000,0.000,0.000,0.00,0.00,-8.63,-7.87,0.76
1645,3300.00,3300.00,3300.00,-0.2961,0.8486,0.6682,-0.836,-19.498,6.523,22.21,48.11,0.0286,-0.8008,0.6060,-1.467,-9.143,1.827,-3.61,-53.05,0.0000,0.0000,0.0000,0.000,0.000,0.000,0.00,0.00,-8.82,-7.99,0.83
1660,3300.00,3300.00,3300.00,-0.3157,0.8262,0.6982,-4.317,-21.300,8.767,21.79,48.08,0.0276,-0.8025,0.6003,1.571,-9.555,1.598,-3.70,-53.03,0.0000,0.0000,0.0000,0.000,0.000,0.000,0.00,0.00,-8.97,-8.08,0.89
1684,3300.00,3300.00,3300.00,-0.2993,0.8301,0.6951,-12.225,-34.720,3.698,20.83,47.83,0.0293,-0.8018,0.6116,0.929,-8.181,1.323,-3.86,-53.01,0.0000,0.0000,0.0000,0.000,0.000,0.000,0.00,0.00,-9.06,-8.09,0.97
1698,3300.00,3300.00,3300.00,-0.2952,0.8535,0.6802,-16.897,-42.140,5.256,20.13,47.66,0.0298,-0.8054,0.6057,1.586,-6.593,0.529,-3.91,-52.98,0.0000,0.0000,0.0000,0.000,0.000,0.000,0.00,0.00,-9.09,-8.05,1.04
1723,3300.00,3300.00,3300.00,-0.2852,0.8335,0.7212,-28.225,-37.437,9.500,19.12,47.02,0.0332,-0.8071,0.5957,3.235,-4.563,-0.646,-3.98,-52.92,0.0000,0.0000,0.0000,0.000,0.000,0.000,0.00,0.00,-9.06,-7.94,1.12
1737,3300.00,3300.00,3300.00,-0.2773,0.8320,0.7190,-26.897,-34.506,8.462,18.54,46.68,0.0210,-0.8052,0.5984,3.418,-4.624,-0.937,-3.99,-52.88,0.0000,0.0000,0.0000,0.000,0.000,0.000,0.00,0.00,-8.99,-7.80,1.18
1761,3300.00,3300.00,3300.00,-0.2695,0.8286,0.7151,-15.843,-42.933,11.164,17.41,46.35,0.0203,-0.8135,0.6025,2.441,-5.097,-0.585,-4.05,-52.83,0.0000,0.0000,0.0000,0.000,0.000,0.000,0.00,0.00,-8.85,-7.59,1.25
1776,3300.00,3300.00,3300.00,-0.2683,0.8367,0.7175,-8.607,-39.453,7.576,16.79,46.30,0.0188,-0.8137,0.6021,3.830,-5.494,-1.059,-4.07,-52.79,0.0000,0.0000,0.0000,0.000,0.000,0.000,0.00,0.00,-8.67,-7.35,1.32
1800,3300.00,3300.00,3300.00,-0.2764,0.8257,0.7351,14.294,-46.582,7.057,15.62,46.68,0.0312,-0.8118,0.5881,4.700,-5.677,-0.479,-4.16,-52.71,0.0000,0.0000,0.0000,0.000,0.000,0.000,0.00,0.00,-8.43,-7.05,1.38
1814,3300.00,3300.00,3109.01,-0.2678,0.8291,0.7095,15.943,-39.682,5.439,15.02,46.96,0.0388,-0.8076,0.5815,3.464,-3.754,-0.677,-4.17,-52.69,0.0000,0.0000,0.0000,0.000,0.000,0.000,0.00,0.00,-8.17,-6.73,1.45
1829,2115.38,261.10,0.00,-0.2686,0.8323,0.7188,10.111,-35.178,5.210,14.51,47.14,0.0515,-0.7996,0.5940,1.723,-0.441,-0.433,-4.16,-52.68,0.0000,0.0000,0.0000,0.000,0.000,0.000,0.00,0.00,-7.89,-6.39,1.50
1853,1902.64,1357.88,0.00,-0.2607,0.8584,0.7341,14.523,-38.659,4.309,13.54,47.54,0.0518,-0.7939,0.5874,-1.284,2.491,-0.814,-4.07,-52.73,0.0000,0.0000,0.0000,0.000,0.000,0.000,0.00,0.00,-7.56,-6.01,1.55
1868,3300.00,1353.85,2856.78,-0.2454,0.8499,0.6589,4.844,-33.071,3.714,13.07,47.70,0.0476,-0.7915,0.5974,-1.467,3.224,-0.616,-4.00,-52.75,0.0000,0.0000,0.0000,0.000,0.000,0.000,0.00,0.00,-7.21,-5.62,1.59
1882,3300.00,976.70,2877.73,-0.2520,0.8569,0.7124,-6.652,-30.017,3.943,12.64,47.66,0.0571,-0.7944,0.6042,-2.872,6.124,-0.066,-3.90,-52.79,0.0000,0.0000,0.0000,0.000,0.000,0.000,0.00,0.00,-6.85,-5.23,1.62
1906,0.00,489.96,0.00,-0.2559,0.8569,0.7224,-21.141,-40.369,6.187,11.68,47.20,0.0505,-0.7896,0.6077,-4.383,6.353,1.048,-3.73,-52.89,0.0000,0.0000,0.0000,0.000,0.000,0.000,0.00,0.00,-6.43,-4.80,1.64
1921,1229.74,1689.08,1882.49,-0.2449,0.8550,0.7490,-26.408,-48.384,8.996,11.01,46.86,0.0544,-0.7883,0.6113,-4.246,8.842,1.552,-3.59,-52.93,0.0000,0.0000,0.0000,0.000,0.000,0.000,0.00,0.00,-5.99,-4.35,1.64
1935,3300.00,1598.83,3300.00,-0.2305,0.8350,0.7368,-27.095,-57.636,9.088,10.21,46.51,0.0535,-0.7991,0.6179,-2.780,13.346,0.758,-3.39,-52.96,0.0000,0.0000,0.0000,0.000,0.000,0.000,0.00,0.00,-5.51,-3.88,1.63
1960,0.00,0.00,0.00,-0.2180,0.8291,0.7239,15.714,-46.246,-1.691,9.12,46.94,0.0417,-0.8076,0.6084,2.594,20.506,1.247,-2.88,-52.90,0.0000,0.0000,0.0000,0.000,0.000,0.000,0.00,0.00,-4.95,-3.36,1.59
1974,0.00,0.00,0.00,-0.2117,0.8450,0.7195,36.859,-52.155,-6.958,8.43,47.50,0.0522,-0.8105,0.6086,-3.681,24.827,4.056,-2.54,-52.95,0.0000,0.0000,0.0000,0.000,0.000,0.000,0.00,0.00,-4.36,-2.84,1.52
1988,0.00,0.00,0.00,-0.2324,0.8440,0.7100,53.363,-47.162,-11.737,7.84,48.30,0.0520,-0.8008,0.6147,7.296,34.903,-1.211,-2.06,-52.84,0.0000,0.0000,0.0000,0.000,0.000,0.000,0.00,0.00,-3.73,-2.31,1.42
2012,0.00,0.00,0.00,-0.2158,0.8562,0.6829,65.256,-23.636,-13.111,7.34,49.92,-0.0420,-0.7617,0.5972,-9.055,25.300,7.720,-1.36,-53.04,0.0000,0.0000,0.0000,0.000,0.000,0.000,0.00,0.00,-3.06,-1.78,1.29
2027,0.00,0.00,0.00,-0.2703,0.8804,0.5947,65.119,17.189,-13.264,7.72,50.95,0.0762,-0.7957,0.5894,-15.849,19.834,7.857,-1.15,-53.27,0.0000,0.0000,0.0000,0.000,0.000,0.000,0.00,0.00,-2.46,-1.31,1.15
2041,0.00,0.00,0.00,-0.2549,0.8752,0.6519,55.149,18.639,-8.928,8.09,51.76,0.0249,-0.7771,0.5854,-9.391,17.697,4.025,-0.91,-53.40,0.0000,0.0000,0.0000,0.000,0.000,0.000,0.00,0.00,-1.90,-0.90,1.00
2065,0.00,0.00,0.00,-0.2122,0.8608,0.6504,7.119,-7.407,1.561,7.97,51.96,0.0229,-0.8074,0.6240,-7.880,4.949,3.598,-0.79,-53.56,0.0000,0.0000,0.0000,0.000,0.000,0.000,0.00,0.00,-1.37,-0.52,0.85
2080,0.00,0.00,0.00,-0.2056,0.8562,0.6912,20.935,1.082,-1.737,8.04,52.23,0.0256,-0.8149,0.5996,-3.300,2.506,3.079,-0.77,-53.61,0.0000,0.0000,0.0000,0.000,0.000,0.000,0.00,0.00,-0.87,-0.16,0.71
2094,0.00,0.00,0.00,-0.2170,0.8623,0.6921,6.813,-2.094,-0.271,8.07,52.30,0.0222,-0.8127,0.5906,-1.880,1.193,3.247,-0.77,-53.64,0.0000,0.0000,0.0000,0.000,0.000,0.000,0.00,0.00,-0.42,0.17,0.58
2118,0.00,0.00,0.00,-0.2268,0.8750,0.6462,1.531,-3.819,0.370,8.05,52.37,0.0222,-0.8059,0.5947,-2.124,-0.166,3.063,-0.78,-53.69,0.0000,0.0000,0.0000,0.000,0.000,0.000,0.00,0.00,0.01,0.47,0.46
2132,0.00,0.00,0.00,-0.2290,0.8562,0.6982,1.424,-5.743,1.744,8.05,52.35,0.0146,-0.8088,0.5938,-0.918,-0.013,1.918,-0.78,-53.71,0.0000,0.0000,0.0000,0.000,0.000,0.000,0.00,0.00,0.41,0.76,0.35
2147,0.00,0.00,0.00,-0.2222,0.8445,0.6941,4.065,-1.773,-0.119,8.09,52.38,0.0078,-0.8081,0.5945,-1.147,0.216,0.743,-0.77,-53.72,0.0000,0.0000,0.0000,0.000,0.000,0.000,0.00,0.00,0.77,1.02,0.25
2161,0.00,0.00,0.00,-0.2302,0.8486,0.6938,5.119,-2.735,0.660,8.13,52.41,0.0032,-0.8152,0.5969,-0.063,0.323,1.002,-0.76,-53.72,0.0000,0.0000,0.0000,0.000,0.000,0.000,0.00,0.00,1.11,1.26,0.15
2185,0.00,0.00,0.00,-0.2271,0.8506,0.6902,5.393,-0.353,-0.744,8.19,52.51,0.0061,-0.8105,0.5903,0.410,-0.303,0.972,-0.75,-53.72,0.0000,0.0000,0.0000,0.000,0.000,0.000,0.00,0.00,1.42,1.48,0.06
2199,0.00,0.00,1637.51,-0.2234,0.8528,0.6882,5.943,0.135,-0.912,8.26,52.57,0.0054,-0.8083,0.5972,1.006,-0.105,-0.005,-0.75,-53.70,0.0000,0.0000,0.0000,0.000,0.000,0.000,0.00,0.00,1.70,1.68,-0.02
2214,0.00,0.00,1946.96,-0.2251,0.8547,0.6921,6.248,0.013,-2.119,8.33,52.62,0.0061,-0.8083,0.5901,1.983,-1.250,0.483,-0.76,-53.68,0.0000,0.0000,0.0000,0.000,0.000,0.000,0.00,0.00,1.96,1.86,-0.10
2238,0.00,3189.60,3300.00,-0.2256,0.8538,0.6882,4.584,-0.048,-1.218,8.39,52.70,0.0061,-0.8118,0.5786,1.525,0.353,0.163,-0.74,-53.66,0.0000,0.0000,0.0000,0.000,0.000,0.000,0.00,0.00,2.20,2.03,-0.17
2252,560.07,3300.00,3300.00,-0.2258,0.8562,0.6968,4.859,0.547,-1.065,8.46,52.73,0.0063,-0.8115,0.5862,1.250,-0.379,0.224,-0.74,-53.65,0.0000,0.0000,0.0000,0.000,0.000,0.000,0.00,0.00,2.42,2.18,-0.24
2267,3300.00,3300.00,3300.00,-0.2263,0.8538,0.6924,4.309,0.563,0.126,8.53,52.76,0.0032,-0.8110,0.5918,1.296,-0.853,-0.387,-0.74,-53.64,0.0000,0.0000,0.0000,0.000,0.000,0.000,0.00,0.00,2.61,2.31,-0.31
2291,0.00,2299.12,2832.60,-0.2222,0.8655,0.6946,4.584,0.166,0.401,8.59,52.84,0.0061,-0.8091,0.5925,2.441,-1.937,-0.021,-0.78,-53.58,0.0000,0.0000,0.0000,0.000,0.000,0.000,0.00,0.00,2.79,2.43,-0.36
2305,0.00,3300.00,3300.00,-0.2229,0.8640,0.6885,3.668,0.303,1.057,8.65,52.86,0.0115,-0.8064,0.5933,2.227,-2.624,-0.021,-0.81,-53.55,0.0000,0.0000,0.0000,0.000,0.000,0.000,0.00,0.00,2.95,2.53,-0.41
2320,1324.84,3300.00,3300.00,-0.2222,0.8701,0.6772,3.760,0.044,1.378,8.71,52.90,0.0139,-0.8030,0.5942,1.617,-2.456,-0.097,-0.85,-53.53,0.0000,0.0000,0.0000,0.000,0.000,0.000,0.00,0.00,3.09,2.63,-0.46
2344,0.00,3300.00,2338.61,-0.2207,0.8643,0.6677,4.386,0.899,0.584,8.78,52.99,0.0261,-0.8015,0.5886,2.029,-2.654,0.224,-0.92,-53.48,0.0000,0.0000,0.0000,0.000,0.000,0.000,0.00,0.00,3.20,2.71,-0.49
2358,0.00,3300.00,1509.38,-0.2192,0.8721,0.6694,4.890,1.922,0.507,8.86,53.05,0.0269,-0.8037,0.6035,2.319,-2.273,0.071,-0.97,-53.44,0.0000,0.0000,0.0000,0.000,0.000,0.000,0.00,0.00,3.31,2.78,-0.52
2373,0.00,3300.00,3300.00,-0.2263,0.8716,0.6672,5.851,1.738,0.080,8.94,53.12,0.0278,-0.8015,0.5957,2.471,-2.273,0.285,-1.01,-53.41,0.0000,0.0000,0.0000,0.000,0.000,0.000,0.00,0.00,3.39,2.84,-0.55
2397,2803.59,3300.00,3300.00,-0.2278,0.8738,0.6631,4.935,1.265,-0.256,9.03,53.24,0.0310,-0.7949,0.6045,1.403,-1.998,-0.173,-1.07,-53.36,0.0000,0.0000,0.0000,0.000,0.000,0.000,0.00,0.00,3.46,2.90,-0.57
2411,0.00,3300.00,1166.08,-0.2300,0.8792,0.6641,3.668,0.685,-0.943,9.09,53.28,0.0337,-0.7957,0.6025,1.479,-0.990,-0.311,-1.10,-53.33,0.0000,0.0000,0.0000,0.000,0.000,0.000,0.00,0.00,3.52,2.94,-0.58
2426,0.00,3300.00,1751.94,-0.2317,0.8799,0.6604,2.767,-0.078,-1.187,9.15,53.32,0.0239,-0.7961,0.6018,1.418,-0.944,-0.479,-1.12,-53.30,0.0000,0.0000,0.0000,0.000,0.000,0.000,0.00,0.00,3.57,2.97,-0.60
2450,3300.00,3300.00,3300.00,-0.2336,0.8738,0.6719,3.622,-1.132,-0.256,9.18,53.39,0.0242,-0.7961,0.6055,-0.124,-0.761,-0.417,-1.15,-53.29,0.0000,0.0000,0.0000,0.000,0.000,0.000,0.00,0.00,3.61,3.01,-0.61
2464,3300.00,3300.00,3300.00,-0.2229,0.8787,0.6555,1.500,-0.414,0.278,9.22,53.40,0.0217,-0.7949,0.6064,-0.460,-0.441,-0.585,-1.16,-53.29,0.0000,0.0000,0.0000,0.000,0.000,0.000,0.00,0.00,3.65,3.03,-0.61
2479,2484.47,3300.00,3300.00,-0.2222,0.8789,0.6646,1.164,-1.300,0.706,9.24,53.41,0.0276,-0.7981,0.5994,-0.490,-0.196,-0.234,-1.17,-53.29,0.0000,0.0000,0.0000,0.000,0.000,0.000,0.00,0.00,3.68,3.06,-0.62
2503,3300.00,3300.00,3300.00,-0.2241,0.8708,0.6746,0.737,-2.185,0.752,9.24,53.41,0.0254,-0.8071,0.5986,-0.475,-0.166,-0.311,-1.18,-53.30,0.0000,0.0000,0.0000,0.000,0.000,0.000,0.00,0.00,3.71,3.08,-0.63
2518,3300.00,3300.00,3300.00,-0.2214,0.8672,0.6658,1.836,-1.697,0.446,9.26,53.41,0.0178,-0.8040,0.5989,-0.780,0.094,-0.738,-1.17,-53.32,0.0000,0.0000,0.0000,0.000,0.000,0.000,0.00,0.00,3.73,3.10,-0.64
2532,3300.00,3300.00,3300.00,-0.2258,0.8630,0.6675,2.309,-2.246,0.019,9.27,53.42,0.0215,-0.8035,0.5923,-1.376,0.185,-1.288,-1.17,-53.34,0.0000,0.0000,0.0000,0.000,0.000,0.000,0.00,0.00,3.75,3.11,-0.64
2556,824.40,3300.00,3300.00,-0.2202,0.8623,0.6667,1.836,-0.872,-0.500,9.29,53.44,0.0188,-0.8035,0.6021,-1.040,0.460,-0.677,-1.16,-53.36,0.0000,0.0000,0.0000,0.000,0.000,0.000,0.00,0.00,3.77,3.13,-0.65
2570,3300.00,3300.00,3300.00,-0.2266,0.8721,0.6770,1.225,-0.765,-0.714,9.33,53.44,0.0144,-0.8037,0.6021,-0.124,0.109,-0.708,-1.15,-53.36,0.0000,0.0000,0.0000,0.000,0.000,0.000,0.00,0.00,3.79,3.14,-0.65
2585,3300.00,3300.00,3300.00,-0.2241,0.8706,0.6750,1.485,-1.697,0.004,9.35,53.43,0.0110,-0.8066,0.5962,-0.826,0.506,-0.402,-1.13,-53.37,0.0000,0.0000,0.0000,0.000,0.000,0.000,0.00,0.00,3.81,3.14,-0.66
2609,0.00,3300.00,3300.00,-0.2263,0.8662,0.6809,1.745,-1.712,0.584,9.35,53.44,0.0137,-0.8049,0.5938,-1.208,0.262,-0.631,-1.12,-53.41,0.0000,0.0000,0.0000,0.000,0.000,0.000,0.00,0.00,3.82,3.15,-0.67
2624,236.12,3300.00,3300.00,-0.2266,0.8638,0.6687,0.783,-1.972,0.263,9.37,53.43,0.0120,-0.8025,0.5918,-1.101,0.109,-1.318,-1.11,-53.43,0.0000,0.0000,0.0000,0.000,0.000,0.000,0.00,0.00,3.83,3.16,-0.68
2638,3300.00,3300.00,3300.00,-0.2188,0.8635,0.6750,0.538,-2.033,0.416,9.38,53.41,0.0159,-0.8057,0.5901,-0.490,0.124,-0.769,-1.10,-53.44,0.0000,0.0000,0.0000,0.000,0.000,0.000,0.00,0.00,3.85,3.16,-0.69
2662,3300.00,3300.00,3300.00,-0.2158,0.8687,0.6633,1.943,-1.315,0.172,9.39,53.44,0.0261,-0.8098,0.5903,-0.582,-0.242,-0.341,-1.12,-53.46,0.0000,0.0000,0.0000,0.000,0.000,0.000,0.00,0.00,3.86,3.16,-0.69
2677,1407.84,3300.00,3300.00,-0.2100,0.8730,0.6650,3.668,-0.017,-0.378,9.42,53.48,0.0325,-0.8115,0.5923,-0.216,0.185,-0.479,-1.13,-53.48,0.0000,0.0000,0.0000,0.000,0.000,0.000,0.00,0.00,3.86,3.16,-0.70
2691,589.89,3300.00,3300.00,-0.2114,0.8757,0.6667,2.645,-0.888,-0.470,9.43,53.50,0.0298,-0.8086,0.5867,-0.658,0.048,-0.875,-1.14,-53.50,0.0000,0.0000,0.0000,0.000,0.000,0.000,0.00,0.00,3.87,3.16,-0.70
2715,3300.00,3300.00,3300.00,-0.2119,0.8772,0.6714,1.134,-0.765,-0.286,9.44,53.51,0.0239,-0.8083,0.5964,0.716,-0.273,-0.906,-1.15,-53.48,0.0000,0.0000,0.0000,0.000,0.000,0.000,0.00,0.00,3.87,3.16,-0.70
2730,3300.00,3300.00,3300.00,-0.2173,0.8726,0.6721,1.454,-0.277,-0.286,9.47,53.50,0.0137,-0.8040,0.5959,-0.139,-0.517,-0.540,-1.15,-53.48,0.0000,0.0000,0.0000,0.000,0.000,0.000,0.00,0.00,3.87,3.16,-0.71
2744,3300.00,3300.00,3300.00,-0.2283,0.8723,0.6689,0.599,-1.208,0.049,9.50,53.49,0.0073,-0.8032,0.6008,0.288,-1.067,-0.448,-1.15,-53.47,0.0000,0.0000,0.0000,0.000,0.000,0.000,0.00,0.00,3.87,3.16,-0.71
2769,3300.00,3300.00,3300.00,-0.2336,0.8638,0.6714,2.218,-0.185,0.630,9.55,53.52,0.0073,-0.8003,0.5989,0.090,-1.525,-0.601,-1.17,-53.46,0.0000,0.0000,0.0000,0.000,0.000,0.000,0.00,0.00,3.86,3.15,-0.71
2783,3300.00,3300.00,3300.00,-0.2295,0.8696,0.6694,2.767,-0.536,0.630,9.59,53.54,0.0154,-0.8037,0.5962,0.273,-1.677,-0.860,-1.19,-53.46,0.0000,0.0000,0.0000,0.000,0.000,0.000,0.00,0.00,3.85,3.14,-0.71
2797,3300.00,3300.00,3300.00,-0.2202,0.8677,0.6682,2.187,-0.201,0.385,9.62,53.54,0.0190,-0.8064,0.5918,-0.933,-1.112,-1.059,-1.20,-53.48,0.0000,0.0000,0.0000,0.000,0.000,0.000,0.00,0.00,3.84,3.13,-0.71
2822,3300.00,3300.00,3300.00,-0.2263,0.8687,0.6716,3.134,-0.353,0.370,9.65,53.59,0.0154,-0.8027,0.5925,-1.040,-0.547,-0.417,-1.21,-53.50,0.0000,0.0000,0.0000,0.000,0.000,0.000,0.00,0.00,3.82,3.12,-0.71
2836,3300.00,3300.00,3300.00,-0.2229,0.8682,0.6699,2.401,0.044,-0.103,9.69,53.60,0.0176,-0.7996,0.5945,-0.689,-0.547,-0.463,-1.21,-53.51,0.0000,0.0000,0.0000,0.000,0.000,0.000,0.00,0.00,3.81,3.10,-0.70
2850,3300.00,3300.00,3300.00,-0.2249,0.8657,0.6719,1.470,0.349,-0.271,9.73,53.59,0.0115,-0.8040,0.5959,0.456,-1.326,-0.769,-1.22,-53.50,0.0000,0.0000,0.0000,0.000,0.000,0.000,0.00,0.00,3.79,3.09,-0.70
2875,210.33,3300.00,1068.57,-0.2163,0.8735,0.6746,0.157,0.135,0.446,9.76,53.57,0.0183,-0.8057,0.5923,2.029,-1.616,-0.173,-1.26,-53.46,0.0000,0.0000,0.0000,0.000,0.000,0.000,0.00,0.00,3.76,3.07,-0.70
2889,2428.86,3300.00,3300.00,-0.2156,0.8684,0.6697,1.210,0.624,1.194,9.80,53.57,0.0146,-0.8054,0.5898,1.907,-2.288,-0.616,-1.28,-53.44,0.0000,0.0000,0.0000,0.000,0.000,0.000,0.00,0.00,3.74,3.05,-0.69
2903,3300.00,3300.00,3300.00,-0.2104,0.8655,0.6699,2.462,0.883,1.576,9.83,53.57,0.0173,-0.8125,0.5869,2.120,-2.517,0.544,-1.31,-53.42,0.0000,0.0000,0.0000,0.000,0.000,0.000,0.00,0.00,3.71,3.03,-0.68
2928,3109.01,1116.12,0.00,-0.2170,0.8691,0.6682,4.737,3.280,0.660,9.94,53.67,0.0225,-0.8066,0.5967,0.639,-2.334,0.605,-1.37,-53.41,0.0000,0.0000,0.0000,0.000,0.000,0.000,0.00,0.00,3.68,3.00,-0.67
2942,0.00,1127.40,0.00,-0.2256,0.8701,0.6633,5.592,3.128,1.057,10.02,53.72,0.0205,-0.8066,0.5991,0.258,-2.410,-0.021,-1.40,-53.41,0.0000,0.0000,0.0000,0.000,0.000,0.000,0.00,0.00,3.63,2.97,-0.66
2956,1399.78,2021.90,1656.04,-0.2329,0.8704,0.6687,6.035,3.021,0.721,10.10,53.78,0.0156,-0.8037,0.6050,0.120,-2.990,-1.059,-1.43,-53.40,0.0000,0.0000,0.0000,0.000,0.000,0.000,0.00,0.00,3.59,2.94,-0.65
2981,3300.00,296.56,3300.00,-0.2366,0.8833,0.6677,4.019,0.990,0.599,10.16,53.86,0.0225,-0.8037,0.6150,0.929,-2.532,-1.868,-1.48,-53.36,0.0000,0.0000,0.0000,0.000,0.000,0.000,0.00,0.00,3.54,2.91,-0.63
2995,3300.00,0.00,142.64,-0.2305,0.8818,0.6624,3.180,-0.231,1.210,10.19,53.89,0.0232,-0.7964,0.6055,0.227,-2.578,-2.555,-1.52,-53.34,0.0000,0.0000,0.0000,0.000,0.000,0.000,0.00,0.00,3.48,2.87,-0.61
3010,1398.97,0.00,0.00,-0.2251,0.8748,0.6650,2.523,-0.399,1.912,10.21,53.90,0.0266,-0.8003,0.6030,-1.086,-1.021,-2.341,-1.53,-53.35,0.0000,0.0000,0.0000,0.000,0.000,0.000,0.00,0.00,3.43,2.84,-0.59
3034,3300.00,3043.74,3300.00,-0.2131,0.8760,0.6643,3.088,-0.964,1.805,10.20,53.96,0.0273,-0.8059,0.5859,-2.445,0.079,-1.685,-1.53,-53.42,0.0000,0.0000,0.0000,0.000,0.000,0.000,0.00,0.00,3.38,2.81,-0.58
3048,3300.00,1907.47,3300.00,-0.2124,0.8752,0.6614,1.393,-1.346,1.790,10.20,53.96,0.0322,-0.8076,0.5959,-2.551,-0.441,-1.761,-1.54,-53.46,0.0000,0.0000,0.0000,0.000,0.000,0.000,0.00,0.00,3.34,2.78,-0.56
3063,3300.00,1573.85,3300.00,-0.2083,0.8657,0.6636,1.607,-1.636,1.210,10.19,53.95,0.0271,-0.8108,0.5864,-1.330,-0.486,-2.311,-1.55,-53.49,0.0000,0.0000,0.0000,0.000,0.000,0.000,0.00,0.00,3.30,2.75,-0.55
3087,3300.00,3300.00,3300.00,-0.2107,0.8665,0.6614,2.874,-2.185,0.965,10.15,53.99,0.0183,-0.8069,0.5989,-0.567,0.170,-2.540,-1.54,-53.51,0.0000,0.0000,0.0000,0.000,0.000,0.000,0.00,0.00,3.26,2.73,-0.53
3102,3300.00,3300.00,3300.00,-0.2161,0.8718,0.6655,4.722,-0.216,0.172,10.17,54.03,0.0256,-0.8054,0.5928,-0.368,-1.097,-2.463,-1.55,-53.51,0.0000,0.0000,0.0000,0.000,0.000,0.000,0.00,0.00,3.23,2.71,-0.52
3116,3300.00,3300.00,3300.00,-0.2178,0.8677,0.6611,4.676,1.464,0.202,10.21,54.07,0.0164,-0.8066,0.5984,-0.261,-1.479,-2.250,-1.56,-53.52,0.0000,0.0000,0.0000,0.000,0.000,0.000,0.00,0.00,3.19,2.69,-0.51
3140,3300.00,3300.00,3300.00,-0.2332,0.8708,0.6599,7.332,3.387,0.706,10.33,54.22,0.0139,-0.7981,0.6108,-1.345,-1.906,-1.333,-1.59,-53.53,0.0000,0.0000,0.0000,0.000,0.000,0.000,0.00,0.00,3.15,2.66,-0.49
3155,3300.00,3300.00,3300.00,-0.2439,0.8823,0.6636,6.538,3.464,0.965,10.42,54.29,0.0134,-0.7993,0.5984,-3.437,-1.540,-1.532,-1.59,-53.57,0.0000,0.0000,0.0000,0.000,0.000,0.000,0.00,0.00,3.10,2.62,-0.48
3169,3300.00,3300.00,3300.00,-0.2400,0.8723,0.6685,7.531,2.166,2.141,10.49,54.36,0.0005,-0.7954,0.6021,-4.521,-1.280,-2.692,-1.58,-53.62,0.0000,0.0000,0.0000,0.000,0.000,0.000,0.00,0.00,3.06,2.59,-0.47
3194,3300.00,2363.59,3300.00,-0.2371,0.8669,0.6616,7.271,0.883,3.378,10.55,54.50,-0.0007,-0.7993,0.6001,-6.475,0.246,-3.379,-1.54,-53.77,0.0000,0.0000,0.0000,0.000,0.000,0.000,0.00,0.00,3.01,2.55,-0.46
3208,3300.00,2450.62,3300.00,-0.2361,0.8569,0.6604,9.729,2.410,2.584,10.61,54.59,0.0012,-0.8110,0.5928,-8.185,0.048,-3.975,-1.51,-53.88,0.0000,0.0000,0.0000,0.000,0.000,0.000,0.00,0.00,2.96,2.51,-0.45
3222,3300.00,3198.46,3300.00,-0.2463,0.8372,0.6643,17.699,5.784,0.339,10.74,54.78,-0.0034,-0.8196,0.5999,-8.918,-1.418,-7.501,-1.50,-54.00,0.0000,0.0000,0.0000,0.000,0.000,0.000,0.00,0.00,2.91,2.47,-0.45
3247,3300.00,912.23,3300.00,-0.2363,0.8401,0.6648,30.172,11.479,-6.393,11.05,55.44,-0.0005,-0.8291,0.5969,-7.193,-1.891,-13.563,-1.51,-54.18,0.0000,0.0000,0.0000,0.000,0.000,0.000,0.00,0.00,2.85,2.40,-0.44
3261,2619.05,3300.00,0.00,-0.2229,0.8728,0.6790,23.638,10.059,-6.531,11.20,55.71,0.0159,-0.8103,0.5930,-2.032,-3.128,-14.112,-1.54,-54.20,0.0000,0.0000,0.0000,0.000,0.000,0.000,0.00,0.00,2.77,2.33,-0.44
3275,0.00,3300.00,0.00,-0.2158,0.9072,0.6741,15.897,5.723,-4.393,11.27,55.88,0.0166,-0.7905,0.5759,-0.277,-2.883,-10.677,-1.57,-54.20,0.0000,0.0000,0.0000,0.000,0.000,0.000,0.00,0.00,2.69,2.26,-0.43
3300,3300.00,3300.00,3300.00,-0.2041,0.8997,0.6392,15.531,5.357,0.965,11.38,56.23,0.0142,-0.7910,0.5676,-4.078,-1.448,-1.837,-1.59,-54.30,0.0000,0.0000,0.0000,0.000,0.000,0.000,0.00,0.00,2.61,2.19,-0.42
3314,3300.00,3300.00,3300.00,-0.2019,0.8899,0.6375,17.668,10.288,1.500,11.51,56.44,0.0256,-0.8103,0.5669,-4.826,0.185,1.598,-1.59,-54.38,0.0000,0.0000,0.0000,0.000,0.000,0.000,0.00,0.00,2.52,2.11,-0.41
3328,3300.00,3300.00,3300.00,-0.2112,0.8748,0.6411,16.294,12.456,2.492,11.68,56.62,0.0320,-0.8237,0.5881,-3.406,-1.234,1.323,-1.61,-54.43,0.0000,0.0000,0.0000,0.000,0.000,0.000,0.00,0.00,2.43,2.03,-0.40
3353,3300.00,3300.00,3300.00,-0.2356,0.8828,0.6372,12.676,7.280,2.416,11.86,56.87,0.0229,-0.8130,0.6196,-0.964,-5.479,-1.700,-1.74,-54.42,0.0000,0.0000,0.0000,0.000,0.000,0.000,0.00,0.00,2.32,1.94,-0.39
3367,3300.00,3300.00,3300.00,-0.2349,0.8877,0.6113,12.966,6.105,1.820,11.96,57.03,0.0371,-0.8069,0.6101,-2.185,-6.502,-3.853,-1.83,-54.42,0.0000,0.0000,0.0000,0.000,0.000,0.000,0.00,0.00,2.21,1.85,-0.36
3381,3300.00,3300.00,3300.00,-0.2527,0.9050,0.6030,16.370,7.005,0.904,12.08,57.24,0.0544,-0.7874,0.6062,-4.063,-1.983,-4.662,-1.89,-54.44,0.0000,0.0000,0.0000,0.000,0.000,0.000,0.00,0.00,2.09,1.75,-0.34
3406,3300.00,3300.00,3300.00,-0.2532,0.9067,0.6077,16.737,7.570,1.851,12.28,57.62,0.0405,-0.7869,0.6013,-6.017,-2.532,-5.074,-1.96,-54.55,0.0000,0.0000,0.0000,0.000,0.000,0.000,0.00,0.00,1.96,1.65,-0.31
3420,3300.00,3300.00,3300.00,-0.2534,0.9087,0.6133,14.630,7.235,1.775,12.39,57.79,0.0317,-0.7820,0.6079,-6.414,-1.280,-4.311,-1.97,-54.59,0.0000,0.0000,0.0000,0.000,0.000,0.000,0.00,0.00,1.83,1.55,-0.28
3435,3300.00,3300.00,3300.00,-0.2537,0.9089,0.6165,9.958,3.662,3.317,12.46,57.90,0.0383,-0.7878,0.6128,-4.277,-1.631,-4.082,-2.00,-54.60,0.0000,0.0000,0.0000,0.000,0.000,0.000,0.00,0.00,1.71,1.45,-0.25
3459,3300.00,3300.00,3300.00,-0.2397,0.9136,0.6001,10.416,2.547,5.943,12.52,58.12,0.0405,-0.7910,0.6067,-4.124,-2.044,-3.364,-2.06,-54.66,0.0000,0.0000,0.0000,0.000,0.000,0.000,0.00,0.00,1.58,1.36,-0.22
3473,3300.00,3300.00,3300.00,-0.2517,0.9036,0.5898,12.844,4.960,7.454,12.60,58.28,0.0308,-0.7944,0.6189,-7.666,-4.059,-3.120,-2.11,-54.71,0.0000,0.0000,0.0000,0.000,0.000,0.000,0.00,0.00,1.46,1.26,-0.19
3488,3300.00,3300.00,3300.00,-0.2620,0.9021,0.5894,18.752,8.227,6.782,12.74,58.51,0.0283,-0.7944,0.6135,-9.529,-4.028,-4.692,-2.15,-54.80,0.0000,0.0000,0.0000,0.000,0.000,0.000,0.00,0.00,1.33,1.16,-0.16
3512,3300.00,3300.00,3300.00,-0.2776,0.9202,0.6245,24.233,7.311,6.752,12.94,59.04,0.0413,-0.7834,0.6238,-13.406,-6.257,-7.593,-2.31,-55.05,0.0000,0.0000,0.0000,0.000,0.000,0.000,0.00,0.00,1.18,1.06,-0.12
3526,3300.00,3300.00,3300.00,-0.2832,0.9214,0.6248,29.775,-2.811,8.324,12.92,59.39,0.0410,-0.7905,0.6006,-11.467,-3.799,-9.318,-2.36,-55.17,0.0000,0.0000,0.0000,0.000,0.000,0.000,0.00,0.00,1.04,0.96,-0.08
3541,3300.00,3300.00,3300.00,-0.2856,0.9207,0.6128,28.523,-11.300,10.797,12.80,59.73,0.0193,-0.7783,0.6042,-9.040,-1.708,-12.387,-2.36,-55.24,0.0000,0.0000,0.0000,0.000,0.000,0.000,0.00,0.00,0.92,0.88,-0.04
3565,3300.00,0.00,3300.00,-0.2539,0.8909,0.6001,19.592,-12.277,16.385,12.51,60.13,-0.0054,-0.8247,0.6135,-16.048,-3.036,-12.097,-2.38,-55.58,0.0000,0.0000,0.0000,0.000,0.000,0.000,0.00,0.00,0.83,0.83,-0.00
3580,3300.00,0.00,3300.00,-0.2446,0.8958,0.5930,21.225,-8.109,17.943,12.40,60.36,0.0032,-0.8284,0.6001,-25.651,-7.494,-13.776,-2.44,-55.92,0.0000,0.0000,0.0000,0.000,0.000,0.000,0.00,0.00,0.75,0.78,0.03
3594,2758.46,0.00,3300.00,-0.2598,0.9180,0.6147,21.485,-5.834,21.317,12.34,60.58,0.0024,-0.8364,0.6221,-34.124,-10.318,-17.028,-2.54,-56.34,0.0000,0.0000,0.0000,0.000,0.000,0.000,0.00,0.00,0.67,0.75,0.08
3619,3300.00,0.00,3300.00,-0.3098,0.9175,0.6606,32.676,-11.712,28.248,12.12,61.23,-0.0203,-0.8560,0.6182,-38.704,-14.670,-28.417,-2.82,-57.23,0.0000,0.0000,0.0000,0.000,0.000,0.000,0.00,0.00,0.59,0.73,0.14
3633,3300.00,0.00,3300.00,-0.3108,0.9341,0.6714,37.806,-12.552,32.981,12.00,61.62,-0.0498,-0.8503,0.6304,-39.895,-18.059,-35.822,-2.96,-57.71,0.0000,0.0000,0.0000,0.000,0.000,0.000,0.00,0.00,0.52,0.72,0.20
3657,0.00,0.00,0.00,-0.3093,0.9080,0.7017,36.096,-20.659,48.141,11.57,62.30,-0.0774,-0.8586,0.5962,-36.658,-26.975,-44.570,-3.47,-58.54,0.0000,0.0000,0.0000,0.000,0.000,0.000,0.00,0.00,0.44,0.74,0.30
3672,0.00,0.00,460.15,-0.2712,0.8970,0.6650,38.920,-25.758,52.202,11.25,62.67,-0.0422,-0.8601,0.5806,-35.834,-31.280,-47.318,-3.79,-58.99,0.0000,0.0000,0.0000,0.000,0.000,0.000,0.00,0.00,0.37,0.78,0.41
3686,2434.51,0.00,3300.00,-0.1855,0.8987,0.6560,38.554,-21.559,57.729,10.91,63.03,0.0032,-0.8584,0.5408,-36.933,-37.830,-48.402,-4.25,-59.49,0.0000,0.0000,0.0000,0.000,0.000,0.000,0.00,0.00,0.30,0.85,0.55
3710,0.00,0.00,0.00,-0.1409,0.9412,0.6084,37.836,-18.903,64.920,10.38,63.82,0.0974,-0.8792,0.4939,-37.819,-41.357,-50.646,-5.26,-60.42,0.0000,0.0000,0.0000,0.000,0.000,0.000,0.00,0.00,0.20,0.94,0.74
3725,0.00,0.00,0.00,-0.1228,0.9478,0.5938,45.363,-20.216,67.057,10.02,64.34,0.1299,-0.8884,0.4929,-42.903,-40.303,-54.173,-5.86,-61.02,0.0000,0.0000,0.0000,0.000,0.000,0.000,0.00,0.00,0.09,1.06,0.97
3739,0.00,0.00,0.00,-0.1145,0.9333,0.5930,48.706,-20.506,68.202,9.65,64.89,0.1328,-0.8987,0.5059,-43.361,-39.799,-58.524,-6.45,-61.63,0.0000,0.0000,0.0000,0.000,0.000,0.000,0.00,0.00,-0.03,1.19,1.22
3763,3300.00,0.00,3300.00,-0.1033,0.9226,0.5667,46.080,-27.285,68.752,8.91,65.86,0.1414,-0.8801,0.5068,-33.467,-42.547,-63.883,-7.50,-62.40,0.0000,0.0000,0.0000,0.000,0.000,0.000,0.00,0.00,-0.16,1.36,1.53
3778,3300.00,709.16,1302.27,-0.0955,0.9290,0.5396,47.745,-30.201,66.920,8.41,66.41,0.1743,-0.8557,0.4880,-32.765,-42.914,-67.333,-8.15,-62.81,0.0000,0.0000,0.0000,0.000,0.000,0.000,0.00,0.00,-0.30,1.56,1.86
3802,3300.00,3300.00,3300.00,-0.0469,0.9517,0.5083,54.432,-29.987,62.462,7.57,67.63,0.2087,-0.8328,0.4600,-39.635,-37.708,-65.532,-9.15,-63.73,0.0000,0.0000,0.0000,0.000,0.000,0.000,0.00,0.00,-0.43,1.80,2.24
3817,3300.00,3300.00,3300.00,-0.0225,0.9746,0.5046,51.332,-28.277,61.118,7.05,68.24,0.2341,-0.8364,0.4526,-45.223,-35.158,-58.967,-9.73,-64.32,0.0000,0.0000,0.0000,0.000,0.000,0.000,0.00,0.00,-0.56,2.07,2.63
3841,3300.00,3300.00,3300.00,-0.0244,1.0027,0.4968,35.974,-29.636,61.759,6.22,69.02,0.2476,-0.8447,0.4597,-44.506,-27.967,-55.685,-10.50,-65.33,0.0000,0.0000,0.0000,0.000,0.000,0.000,0.00,0.00,-0.68,2.37,3.05
3855,3300.00,3300.00,3300.00,-0.0354,0.9822,0.4761,30.783,-29.788,61.591,5.72,69.35,0.2483,-0.8572,0.4707,-46.154,-26.837,-54.341,-10.94,-65.89,0.0000,0.0000,0.0000,0.000,0.000,0.000,0.00,0.00,-0.78,2.68,3.47
3880,3300.00,3300.00,3300.00,-0.0527,0.9526,0.5181,29.287,-32.078,59.408,4.89,69.90,0.2231,-0.8645,0.4819,-43.269,-23.998,-55.776,-11.56,-66.84,0.0000,0.0000,0.0000,0.000,0.000,0.000,0.00,0.00,-0.87,3.04,3.90
3894,3300.00,3300.00,3300.00,-0.0574,0.9346,0.4995,32.080,-34.659,57.118,4.37,70.18,0.1929,-0.8748,0.4849,-39.681,-24.257,-56.921,-11.88,-67.27,0.0000,0.0000,0.0000,0.000,0.000,0.000,0.00,0.00,-0.93,3.40,4.33
3919,3300.00,3300.00,3300.00,-0.0457,0.9580,0.4900,47.775,-27.285,54.568,3.67,71.19,0.2141,-0.8604,0.4680,-38.414,-24.776,-60.112,-12.49,-68.08,0.0000,0.0000,0.0000,0.000,0.000,0.000,0.00,0.00,-0.98,3.79,4.77
3933,3300.00,3300.00,3300.00,-0.0374,0.9968,0.5127,43.119,-30.552,55.515,3.21,71.62,0.2188,-0.8640,0.4751,-35.147,-27.418,-57.700,-12.87,-68.43,0.0000,0.0000,0.0000,0.000,0.000,0.000,0.00,0.00,-1.02,4.18,5.20
3957,3300.00,3300.00,3300.00,-0.0081,0.9851,0.4976,32.172,-40.903,59.362,2.17,72.23,0.2268,-0.8691,0.4358,-32.750,-29.097,-55.486,-13.58,-69.12,0.0000,0.0000,0.0000,0.000,0.000,0.000,0.00,0.00,-1.04,4.62,5.66
3972,3300.00,3300.00,3300.00,0.0098,0.9465,0.4846,39.378,-37.361,58.920,1.59,72.59,0.2290,-0.8782,0.4316,-34.689,-30.227,-56.570,-13.99,-69.50,0.0000,0.0000,0.0000,0.000,0.000,0.000,0.00,0.00,-1.04,5.06,6.11
3996,3300.00,3300.00,3300.00,0.0300,0.9866,0.4937,51.516,-29.514,55.683,0.82,73.65,0.2532,-0.9062,0.4329,-30.124,-36.639,-58.143,-14.88,-70.13,0.0000,0.0000,0.0000,0.000,0.000,0.000,0.00,0.00,-1.05,5.53,6.59
4011,3300.00,3300.00,3300.00,0.0337,0.9910,0.4922,47.607,-30.201,58.538,0.34,74.12,0.2610,-0.8818,0.4087,-31.055,-41.555,-58.814,-15.47,-70.46,0.0000,0.0000,0.0000,0.000,0.000,0.000,0.00,0.00,-1.07,6.01,7.08
4035,3300.00,3300.00,3300.00,0.0439,0.9993,0.4502,50.828,-27.056,62.889,-0.36,75.18,0.2825,-0.8687,0.4185,-35.529,-44.700,-56.509,-16.56,-71.20,0.0000,0.0000,0.0000,0.000,0.000,0.000,0.00,0.00,-1.12,6.49,7.61
4050,3300.00,3300.00,3300.00,0.0381,0.9771,0.4385,47.454,-22.674,65.729,-0.71,75.65,0.2986,-0.8787,0.4158,-33.559,-44.349,-56.112,-17.19,-71.53,0.0000,0.0000,0.0000,0.000,0.000,0.000,0.00,0.00,-1.18,6.97,8.15
4074,3300.00,3300.00,3300.00,-0.0022,1.0190,0.4563,55.439,-17.178,64.080,-1.11,76.79,0.2966,-0.8621,0.4351,-32.216,-41.433,-58.967,-18.19,-72.14,0.0000,0.0000,0.0000,0.000,0.000,0.000,0.00,0.00,-1.28,7.44,8.72
4088,3300.00,3300.00,3300.00,0.0244,0.9907,0.4622,43.653,-26.811,69.088,-1.49,77.17,0.2876,-0.8591,0.4282,-34.765,-41.906,-58.082,-18.74,-72.46,0.0000,0.0000,0.0000,0.000,0.000,0.000,0.00,0.00,-1.38,7.91,9.29
4113,3300.00,3300.00,3300.00,0.0415,0.9587,0.4492,54.477,-21.376,70.965,-2.02,78.23,0.2747,-0.8853,0.4167,-38.582,-45.937,-62.311,-19.79,-73.23,0.0000,0.0000,0.0000,0.000,0.000,0.000,0.00,0.00,-1.51,8.38,9.89
4127,3300.00,3300.00,3300.00,0.0640,0.9626,0.4531,61.638,-16.307,70.874,-2.27,78.82,0.2922,-0.8933,0.4080,-34.246,-49.876,-64.906,-20.42,-73.55,0.0000,0.0000,0.0000,0.000,0.000,0.000,0.00,0.00,-1.66,8.83,10.49
4152,3300.00,3300.00,3300.00,0.0667,1.0024,0.4314,57.622,-27.468,72.553,-2.96,79.97,0.3352,-0.8721,0.3948,-26.216,-52.089,-68.784,-21.65,-74.03,0.0000,0.0000,0.0000,0.000,0.000,0.000,0.00,0.00,-1.84,9.30,11.14
4166,3300.00,3300.00,3300.00,0.0957,1.0010,0.4041,55.241,-31.895,74.782,-3.45,80.51,0.3535,-0.8345,0.3662,-28.582,-52.990,-69.242,-22.38,-74.27,0.0000,0.0000,0.0000,0.000,0.000,0.000,0.00,0.00,-2.02,9.77,11.80
4190,3300.00,3300.00,3300.00,0.1721,1.0225,0.3823,54.630,-31.193,80.416,-4.31,81.60,0.3999,-0.8779,0.3401,-33.315,-58.303,-67.532,-23.80,-74.96,0.0000,0.0000,0.0000,0.000,0.000,0.000,0.00,0.00,-2.23,10.27,12.51
4205,3300.00,3300.00,3300.00,0.1941,1.0349,0.3511,55.180,-28.918,83.225,-4.83,82.16,0.4253,-0.8938,0.3491,-31.376,-62.837,-65.532,-24.67,-75.28,0.0000,0.0000,0.0000,0.000,0.000,0.000,0.00,0.00,-2.45,10.77,13.22
4229,3300.00,3300.00,3300.00,0.1809,1.0002,0.3152,66.920,-17.666,82.568,-5.35,83.59,0.4561,-0.8743,0.3582,-38.475,-65.372,-67.166,-26.28,-76.06,0.0000,0.0000,0.0000,0.000,0.000,0.000,0.00,0.00,-2.73,11.28,14.01
4244,3300.00,3300.00,3300.00,0.1345,1.0249,0.3347,68.401,-14.201,82.492,-5.59,84.31,0.4534,-0.8411,0.3899,-32.063,-64.150,-71.624,-27.17,-76.28,0.0000,0.0000,0.0000,0.000,0.000,0.000,0.00,0.00,-3.03,11.76,14.79
4268,3300.00,3300.00,3300.00,0.0811,1.0273,0.3369,58.294,-26.078,86.675,-6.19,85.46,0.4194,-0.8154,0.4021,-36.903,-65.112,-69.959,-28.69,-76.92,0.0000,0.0000,0.0000,0.000,0.000,0.000,0.00,0.00,-3.38,12.25,15.64
4283,3300.00,3300.00,3300.00,0.1172,0.9866,0.2551,83.378,-25.330,75.759,-6.55,86.43,0.4246,-0.8013,0.3770,-42.536,-64.654,-70.616,-29.53,-77.28,0.0000,0.0000,0.0000,0.000,0.000,0.000,0.00,0.00,-3.74,12.74,16.48
4307,3300.00,3300.00,3300.00,0.1443,0.9883,0.3088,58.828,-29.911,84.217,-7.30,87.57,0.4292,-0.7991,0.3518,-44.735,-64.517,-67.959,-31.02,-78.13,0.0000,0.0000,0.0000,0.000,0.000,0.000,0.00,0.00,-4.12,13.24,17.36
4321,3300.00,3300.00,3300.00,0.1621,0.9832,0.3223,43.073,-36.888,87.988,-7.85,87.86,0.4360,-0.8196,0.3237,-39.009,-62.044,-65.501,-31.79,-78.48,0.0000,0.0000,0.0000,0.000,0.000,0.000,0.00,0.00,-4.50,13.74,18.24
4346,3300.00,3300.00,3300.00,0.2227,0.9270,0.3115,60.493,-21.834,78.736,-8.47,88.99,0.4609,-0.8176,0.2537,-33.009,-65.540,-59.440,-33.30,-79.16,0.0000,0.0000,0.0000,0.000,0.000,0.000,0.00,0.00,-4.91,14.25,19.16
4360,3300.00,3300.00,3300.00,0.2644,0.9460,0.2676,61.012,-22.552,74.568,-8.92,89.54,0.4944,-0.8135,0.2603,-40.093,-64.990,-61.318,-34.14,-79.59,0.0000,0.0000,0.0000,0.000,0.000,0.000,0.00,0.00,-5.31,14.76,20.08
4385,3300.00,3300.00,3300.00,0.3237,0.9788,0.2478,67.943,-9.651,67.775,-9.33,90.90,0.5500,-0.7969,0.2041,-45.452,-53.906,-52.769,-35.43,-80.60,0.0000,0.0000,0.0000,0.000,0.000,0.000,0.00,0.00,-5.75,15.26,21.02
4399,3300.00,3300.00,3300.00,0.3469,0.9692,0.2014,59.851,-12.155,67.546,-9.70,91.48,0.5791,-0.8208,0.2219,-51.162,-55.036,-46.860,-36.18,-81.20,0.0000,0.0000,0.0000,0.000,0.000,0.000,0.00,0.00,-6.19,15.76,21.95
4423,3300.00,0.00,3300.00,0.3430,0.9692,0.1965,38.477,-8.078,66.004,-10.08,92.15,0.5811,-0.8296,0.2185,-33.254,-51.555,-49.349,-37.37,-81.88,0.0000,0.0000,0.0000,0.000,0.000,0.000,0.00,0.00,-6.65,16.24,22.90
4438,3300.00,3300.00,3300.00,0.3496,0.9631,0.1812,43.607,-1.208,59.790,-10.29,92.50,0.5901,-0.7991,0.2285,-33.422,-51.601,-44.250,-38.05,-82.19,0.0000,0.0000,0.0000,0.000,0.000,0.000,0.00,0.00,-7.12,16.71,23.82
4462,3300.00,3300.00,3300.00,0.3076,0.9675,0.1953,42.355,-3.483,59.179,-10.51,93.24,0.6057,-0.7888,0.2319,-32.857,-50.028,-44.692,-39.22,-82.81,0.0000,0.0000,0.0000,0.000,0.000,0.000,0.00,0.00,-7.61,17.15,24.77
4477,3300.00,3300.00,3300.00,0.3093,0.9980,0.1687,30.462,-12.353,61.973,-10.81,93.41,0.5862,-0.7886,0.1973,-43.559,-53.891,-41.456,-39.91,-83.28,0.0000,0.0000,0.0000,0.000,0.000,0.000,0.00,0.00,-8.10,17.59,25.70
4501,3300.00,3300.00,3300.00,0.3223,1.0078,0.1519,36.920,-11.040,58.813,-11.21,94.06,0.6716,-0.7493,0.1975,-39.498,-40.761,-45.624,-40.91,-84.07,0.0000,0.0000,0.0000,0.000,0.000,0.000,0.00,0.00,-8.60,18.03,26.63
4515,3300.00,3300.00,3300.00,0.3560,1.0188,0.1326,27.683,-18.903,61.317,-11.64,94.22,0.6853,-0.7688,0.1829,-45.193,-44.990,-41.898,-41.54,-84.55,0.0000,0.0000,0.0000,0.000,0.000,0.000,0.00,0.00,-9.08,18.46,27.54
4540,3300.00,3300.00,3300.00,0.3816,0.9595,0.1243,7.668,-22.750,65.500,-12.38,94.17,0.6667,-0.7974,0.1799,-47.116,-36.379,-40.005,-42.37,-85.54,0.0000,0.0000,0.0000,0.000,0.000,0.000,0.00,0.00,-9.53,18.92,28.45
4554,3300.00,3300.00,3300.00,0.3696,0.9492,0.1682,12.996,-20.491,60.752,-12.84,94.07,0.6289,-0.7915,0.1814,-49.345,-37.540,-40.494,-42.80,-86.06,0.0000,0.0000,0.0000,0.000,0.000,0.000,0.00,0.00,-9.94,19.38,29.32
4579,3300.00,3300.00,3300.00,0.3472,0.9473,0.1914,16.416,-27.040,58.172,-13.63,94.15,0.6162,-0.7681,0.1865,-40.536,-30.456,-42.738,-43.44,-86.84,0.0000,0.0000,0.0000,0.000,0.000,0.000,0.00,0.00,-10.32,19.86,30.17
4593,3300.00,3300.00,3300.00,0.3650,0.9492,0.1838,13.470,-31.346,58.797,-14.21,94.04,0.6172,-0.7720,0.1392,-37.269,-31.326,-41.288,-43.77,-87.22,0.0000,0.0000,0.0000,0.000,0.000,0.000,0.00,0.00,-10.65,20.34,30.99
4618,3300.00,3300.00,3300.00,0.3999,0.9390,0.1692,17.989,-24.353,56.355,-14.97,94.19,0.6069,-0.7883,0.1143,-47.574,-31.845,-33.761,-44.41,-88.26,0.0000,0.0000,0.0000,0.000,0.000,0.000,0.00,0.00,-10.95,20.85,31.80
4632,3300.00,3300.00,3300.00,0.4048,0.9114,0.2014,9.882,-20.262,58.660,-15.42,93.99,0.5996,-0.8062,0.1147,-52.948,-29.815,-30.921,-44.66,-88.87,0.0000,0.0000,0.0000,0.000,0.000,0.000,0.00,0.00,-11.22,21.35,32.57
4656,3300.00,3300.00,3300.00,0.4189,0.9153,0.2673,9.867,-30.155,56.263,-16.31,93.82,0.5820,-0.8306,0.0803,-40.796,-26.914,-37.333,-45.11,-89.76,0.0000,0.0000,0.0000,0.000,0.000,0.000,0.00,0.00,-11.44,21.88,33.31
4671,3300.00,3300.00,3300.00,0.4517,0.9099,0.2427,9.577,-32.170,55.759,-16.94,93.58,0.5881,-0.8140,0.0527,-34.414,-28.105,-36.219,-45.32,-90.17,0.0000,0.0000,0.0000,0.000,0.000,0.000,0.00,0.00,-11.61,22.42,34.02
4695,3300.00,3300.00,3300.00,0.4932,0.9014,0.1799,20.416,-17.636,53.011,-17.59,93.77,0.6104,-0.7795,0.0176,-44.445,-28.899,-29.379,-45.87,-91.21,0.0000,0.0000,0.0000,0.000,0.000,0.000,0.00,0.00,-11.76,22.96,34.72
4709,3300.00,3300.00,3300.00,0.4895,0.8936,0.2048,15.500,-16.872,55.485,-18.04,93.66,0.6294,-0.8054,0.0508,-44.322,-31.921,-28.967,-46.16,-91.73,0.0000,0.0000,0.0000,0.000,0.000,0.000,0.00,0.00,-11.89,23.50,35.39
4734,3300.00,3300.00,3300.00,0.4575,0.8743,0.2175,23.195,-9.956,52.126,-18.46,93.86,0.6045,-0.8228,0.0920,-27.300,-37.128,-33.685,-46.85,-92.23,0.0000,0.0000,0.0000,0.000,0.000,0.000,0.00,0.00,-12.03,24.03,36.06
4748,3300.00,3300.00,3300.00,0.4424,0.8911,0.1899,34.935,-5.712,46.492,-18.69,94.04,0.6191,-0.8147,0.0752,-16.200,-36.685,-35.715,-47.18,-92.31,0.0000,0.0000,0.0000,0.000,0.000,0.000,0.00,0.00,-12.17,24.53,36.70
4773,3300.00,3300.00,3300.00,0.4363,0.9292,0.1685,29.027,-8.170,45.256,-19.00,94.45,0.6650,-0.7520,0.0710,-21.498,-29.097,-34.509,-47.76,-92.67,0.0000,0.0000,0.0000,0.000,0.000,0.000,0.00,0.00,-12.32,25.03,37.34
4787,3300.00,3300.00,3300.00,0.4629,0.9109,0.1445,15.790,-16.323,50.813,-19.39,94.40,0.6616,-0.7642,0.0725,-23.773,-29.662,-35.532,-48.03,-92.84,0.0000,0.0000,0.0000,0.000,0.000,0.000,0.00,0.00,-12.44,25.52,37.96
4812,3300.00,3300.00,3300.00,0.4524,0.9031,0.1448,24.706,-7.224,47.973,-19.70,94.73,0.6655,-0.7839,0.0598,-26.689,-28.761,-36.082,-48.57,-93.34,0.0000,0.0000,0.0000,0.000,0.000,0.000,0.00,0.00,-12.58,25.99,38.57
4826,3300.00,3300.00,3300.00,0.4565,0.8970,0.1455,32.370,-5.559,43.408,-19.92,94.90,0.6768,-0.7534,0.0647,-25.071,-32.746,-34.066,-48.89,-93.52,0.0000,0.0000,0.0000,0.000,0.000,0.000,0.00,0.00,-12.71,26.45,39.16
4851,3300.00,3300.00,3300.00,0.4587,0.9094,0.1628,17.393,-12.918,41.943,-20.36,95.02,0.6584,-0.7661,0.0476,-16.841,-29.173,-33.395,-49.43,-93.79,0.0000,0.0000,0.0000,0.000,0.000,0.000,0.00,0.00,-12.84,26.90,39.75
4865,3300.00,3300.00,3300.00,0.4778,0.9038,0.1528,10.264,-18.369,43.805,-20.76,94.87,0.6624,-0.7427,0.0583,-19.162,-25.601,-32.051,-49.63,-93.89,0.0000,0.0000,0.0000,0.000,0.000,0.000,0.00,0.00,-12.95,27.35,40.31
4889,3300.00,3300.00,3300.00,0.4856,0.8630,0.1479,13.348,-11.636,47.423,-21.20,94.90,0.6406,-0.7756,-0.0754,-11.788,-39.906,-31.028,-50.39,-94.21,0.0000,0.0000,0.0000,0.000,0.000,0.000,0.00,0.00,-13.07,27.81,40.88
4904,3300.00,3300.00,3300.00,0.5203,0.9153,0.1130,22.111,-9.468,43.943,-21.50,94.97,0.7378,-0.6631,0.3167,4.823,-11.784,-64.814,-50.45,-93.55,0.0000,0.0000,0.0000,0.000,0.000,0.000,0.00,0.00,-13.17,28.25,41.42
4928,3300.00,3300.00,3300.00,0.5293,0.9275,0.1211,30.722,-4.567,40.187,-21.77,95.46,0.7097,-0.7603,-0.0061,-11.574,-45.341,-30.753,-51.40,-93.77,0.0000,0.0000,0.0000,0.000,0.000,0.000,0.00,0.00,-13.31,28.68,41.98
4943,3300.00,3300.00,3300.00,0.5193,0.8782,0.1360,22.035,-6.460,40.904,-22.03,95.48,0.7561,-0.7786,0.0503,-9.055,-34.425,-37.486,-51.73,-93.74,0.0000,0.0000,0.0000,0.000,0.000,0.000,0.00,0.00,-13.44,29.09,42.53
4967,3300.00,3300.00,3300.00,0.3901,0.8853,-0.1877,101.851,-13.987,19.851,-22.39,98.06,0.7764,-0.7656,0.1997,-23.544,-28.089,-33.471,-52.26,-93.94,0.0000,0.0000,0.0000,0.000,0.000,0.000,0.00,0.00,-13.58,29.51,43.08
4981,3300.00,3300.00,3300.00,0.5027,0.8564,0.1150,107.057,-4.460,21.591,-22.61,99.24,0.7095,-0.7024,-0.0144,-9.391,-18.685,-41.410,-52.38,-94.02,0.0000,0.0000,0.0000,0.000,0.000,0.000,0.00,0.00,-13.70,29.90,43.60
5006,3300.00,3300.00,3300.00,0.6597,0.8115,0.2488,-9.752,-75.346,69.637,-24.72,98.48,0.7441,-0.6050,0.0535,-45.040,-43.769,2.880,-53.40,-94.92,0.0000,0.0000,0.0000,0.000,0.000,0.000,0.00,0.00,-13.73,30.42,44.15
5020,3300.00,3300.00,3300.00,0.5454,0.8933,0.0847,18.233,-72.078,30.675,-25.86,98.46,0.8276,-0.6575,0.1450,-40.231,-26.883,-8.479,-53.72,-95.13,0.0000,0.0000,0.0000,0.000,0.000,0.000,0.00,0.00,-13.70,30.99,44.69
5045,3300.00,3300.00,3300.00,0.4280,0.9331,0.1245,0.019,12.059,35.256,-25.54,98.14,0.7097,-0.7080,0.0737,-31.544,-40.731,-18.463,-54.53,-95.67,0.0000,0.0000,0.0000,0.000,0.000,0.000,0.00,0.00,-13.76,31.49,45.25
5059,3300.00,3300.00,3300.00,0.5112,0.8748,0.0251,-16.591,-37.895,42.446,-26.17,97.71,0.7229,-0.6675,-0.0449,-36.246,-39.586,5.491,-54.94,-96.14,0.0000,0.0000,0.0000,0.000,0.000,0.000,0.00,0.00,-13.80,32.00,45.79
5083,3300.00,3300.00,3300.00,0.5754,0.8672,0.1611,-3.324,-22.292,32.095,-26.84,97.27,0.6140,-0.7354,-0.2244,-30.857,-66.028,57.567,-56.20,-97.10,0.0000,0.0000,0.0000,0.000,0.000,0.000,0.00,0.00,-13.87,32.52,46.39
5098,3300.00,3300.00,3300.00,0.5671,0.8411,0.1121,-22.484,-29.849,38.446,-27.40,96.66,0.7168,-0.7324,-0.0120,-20.338,-55.921,50.010,-56.74,-97.26,0.0000,0.0000,0.0000,0.000,0.000,0.000,0.00,0.00,-13.94,33.04,46.98
5122,3300.00,3300.00,3300.00,0.5884,0.7908,0.1172,22.554,-28.506,31.820,-28.26,96.90,0.7156,-0.7158,-0.0134,-19.864,-21.891,1.552,-57.03,-97.61,0.0000,0.0000,0.0000,0.000,0.000,0.000,0.00,0.00,-13.96,33.59,47.55
5137,3300.00,3300.00,3300.00,0.5808,0.8213,0.1367,22.294,-24.445,28.263,-28.74,96.88,0.6953,-0.7419,-0.0222,-22.567,-2.532,-5.135,-56.79,-97.81,0.0000,0.0000,0.0000,0.000,0.000,0.000,0.00,0.00,-13.93,34.13,48.07
5161,0.00,0.00,0.00,0.5520,0.8220,0.1233,10.859,-21.239,32.736,-29.35,96.84,0.6992,-0.6855,-0.0188,-44.002,-3.815,-7.578,-56.66,-98.74,0.0000,0.0000,0.0000,0.000,0.000,0.000,0.00,0.00,-13.86,34.68,48.54
5175,0.00,0.00,0.00,0.5547,0.8440,0.1199,13.958,-26.033,35.164,-29.78,96.73,0.6880,-0.7249,-0.0571,-41.544,-0.410,-13.028,-56.40,-99.24,0.0000,0.0000,0.0000,0.000,0.000,0.000,0.00,0.00,-13.74,35.22,48.95
5190,0.00,0.00,0.00,0.5840,0.8215,0.1035,5.897,-28.674,39.515,-30.29,96.54,0.7317,-0.8025,-0.0779,-45.803,-3.143,-20.692,-56.16,-99.81,0.0000,0.0000,0.0000,0.000,0.000,0.000,0.00,0.00,-13.57,35.76,49.33
5214,0.00,0.00,0.00,0.6240,0.7954,0.1243,13.638,-24.628,30.736,-31.03,96.56,0.7212,-0.8186,-0.0981,-33.956,11.651,-31.990,-55.58,-100.56,0.0000,0.0000,0.0000,0.000,0.000,0.000,0.00,0.00,-13.32,36.31,49.63
5228,0.00,0.00,0.00,0.6509,0.7693,0.1260,18.691,-13.834,25.149,-31.40,96.50,0.6780,-0.7847,-0.1167,-19.819,0.017,-35.059,-55.28,-100.79,0.0000,0.0000,0.0000,0.000,0.000,0.000,0.00,0.00,-13.05,36.85,49.89
5243,0.00,0.00,0.00,0.6213,0.7603,0.1060,12.569,-9.010,27.301,-31.68,96.39,0.6724,-0.7454,-0.0532,-16.231,-7.097,-35.150,-55.11,-100.89,0.0000,0.0000,0.0000,0.000,0.000,0.000,0.00,0.00,-12.76,37.37,50.13
5267,0.00,0.00,0.00,0.5615,0.8389,0.0833,16.783,2.624,27.286,-31.66,96.55,0.6389,-0.7056,-0.0139,-14.994,-4.456,-31.150,-54.96,-101.05,0.0000,0.0000,0.0000,0.000,0.000,0.000,0.00,0.00,-12.48,37.85,50.33
5281,0.00,0.00,0.00,0.5186,0.8904,0.1016,15.180,14.273,27.286,-31.43,96.50,0.6372,-0.7175,0.0042,-11.147,-18.837,-30.937,-54.96,-100.98,0.0000,0.0000,0.0000,0.000,0.000,0.000,0.00,0.00,-12.24,38.28,50.52
5296,0.00,0.00,0.00,0.5027,0.8989,0.1130,8.844,9.983,25.820,-31.24,96.35,0.6956,-0.7283,0.0164,-6.322,-17.051,-25.746,-54.97,-100.82,0.0000,0.0000,0.0000,0.000,0.000,0.000,0.00,0.00,-12.03,38.67,50.70
5320,0.00,0.00,0.00,0.4695,0.8853,0.1016,-14.530,-6.033,23.607,-31.31,95.74,0.7117,-0.6521,-0.0364,17.952,-15.952,-15.013,-55.20,-100.24,0.0000,0.0000,0.0000,0.000,0.000,0.000,0.00,0.00,-11.85,39.04,50.89
5334,0.00,0.00,0.00,0.5479,0.8186,0.0872,-22.149,-14.811,20.736,-31.57,95.20,0.6958,-0.6650,-0.0742,20.624,-24.731,-16.875,-55.37,-99.88,0.0000,0.0000,0.0000,0.000,0.000,0.000,0.00,0.00,-11.67,39.40,51.07
5349,0.00,0.00,0.00,0.5996,0.7871,0.0496,-15.065,-13.804,19.943,-31.88,94.81,0.7139,-0.6909,-0.1079,7.952,-24.593,-11.089,-55.52,-99.74,0.0000,0.0000,0.0000,0.000,0.000,0.000,0.00,0.00,-11.49,39.75,51.25
5373,0.00,0.00,0.00,0.6233,0.8032,0.0256,-0.194,-10.201,20.416,-32.24,94.67,0.7739,-0.6279,0.0151,-17.391,-13.204,-10.814,-55.74,-99.94,0.0000,0.0000,0.0000,0.000,0.000,0.000,0.00,0.00,-11.32,40.11,51.43
5388,0.00,0.00,0.00,0.6230,0.7993,0.0474,3.867,-10.201,19.011,-32.50,94.57,0.7578,-0.7244,-0.2004,-3.788,-34.731,-7.471,-56.02,-100.10,0.0000,0.0000,0.0000,0.000,0.000,0.000,0.00,0.00,-11.16,40.46,51.62
5402,2785.05,2383.74,0.00,0.6362,0.7830,0.0308,2.432,-11.529,19.301,-32.79,94.46,0.7561,-0.6316,-0.1025,2.960,-61.143,-15.578,-56.76,-100.04,0.0000,0.0000,0.0000,0.000,0.000,0.000,0.00,0.00,-11.04,40.80,51.85
5427,0.00,0.00,0.00,0.6746,0.7847,0.0366,6.141,-9.926,21.897,-33.18,94.47,0.7637,-0.6860,-0.1323,1.204,-54.868,-12.112,-57.89,-100.03,0.0000,0.0000,0.0000,0.000,0.000,0.000,0.00,0.00,-10.99,41.15,52.14
5441,0.00,0.00,0.00,0.6697,0.8079,0.0330,8.080,-7.972,24.507,-33.42,94.44,0.7832,-0.7017,-0.1484,-5.376,-58.685,-11.944,-58.50,-100.14,0.0000,0.0000,0.0000,0.000,0.000,0.000,0.00,0.00,-10.96,41.49,52.45
5455,0.00,0.00,0.00,0.6750,0.8140,0.0386,7.302,-7.682,24.996,-33.66,94.40,0.7751,-0.7161,-0.1340,-12.032,-53.051,-11.043,-59.01,-100.32,0.0000,0.0000,0.0000,0.000,0.000,0.000,0.00,0.00,-10.95,41.83,52.78
5479,0.00,0.00,0.00,0.6604,0.7876,0.0312,11.119,-8.369,21.744,-33.98,94.54,0.7778,-0.6755,-0.1133,-19.559,-45.494,-6.402,-59.89,-100.77,0.0000,0.0000,0.0000,0.000,0.000,0.000,0.00,0.00,-10.98,42.16,53.14
5494,0.00,0.00,0.00,0.6411,0.7783,0.0562,4.233,-5.590,23.164,-34.17,94.42,0.7747,-0.6357,-0.0623,-33.269,-36.349,-7.837,-60.22,-101.14,0.0000,0.0000,0.0000,0.000,0.000,0.000,0.00,0.00,-11.02,42.48,53.50
5508,0.00,0.00,0.00,0.6328,0.7815,0.0461,-1.767,-7.025,26.187,-34.36,94.24,0.7439,-0.7036,-0.2593,-25.559,-42.883,-10.402,-60.51,-101.68,0.0000,0.0000,0.0000,0.000,0.000,0.000,0.00,0.00,-11.07,42.79,53.86
5533,0.00,0.00,0.00,0.6553,0.7932,0.0452,2.355,-16.796,25.149,-34.87,94.15,0.7510,-0.7070,-0.1501,-13.910,-42.257,-16.204,-61.23,-102.02,0.0000,0.0000,0.0000,0.000,0.000,0.000,0.00,0.00,-11.12,43.12,54.24
5547,0.00,0.00,0.00,0.6409,0.7783,0.0886,6.554,-15.376,24.049,-35.17,94.03,0.7515,-0.6924,-0.1589,-17.361,-30.425,-14.250,-61.36,-102.28,0.0000,0.0000,0.0000,0.000,0.000,0.000,0.00,0.00,-11.16,43.45,54.61
5571,0.00,0.00,0.00,0.6262,0.7864,0.0979,4.630,-11.987,27.240,-35.52,93.92,0.7156,-0.7207,-0.1399,-21.406,-28.105,-13.593,-61.69,-102.77,0.0000,0.0000,0.0000,0.000,0.000,0.000,0.00,0.00,-11.20,43.77,54.97
5585,0.00,0.00,0.00,0.6377,0.7866,0.0903,9.439,-14.933,26.553,-35.80,93.84,0.6990,-0.7314,-0.1562,-17.910,-30.853,-13.211,-61.75,-103.00,0.0000,0.0000,0.0000,0.000,0.000,0.000,0.00,0.00,-11.22,44.10,55.32
5600,0.00,0.00,0.00,0.6479,0.7908,0.0903,9.760,-13.285,24.630,-36.05,93.77,0.7024,-0.6992,-0.1707,-15.071,-38.853,-13.333,-61.95,-103.23,0.0000,0.0000,0.0000,0.000,0.000,0.000,0.00,0.00,-11.23,44.42,55.65
5624,0.00,0.00,0.00,0.6438,0.7849,0.0564,9.683,-12.979,23.164,-36.43,93.84,0.7139,-0.6897,-0.1787,-5.467,-46.914,-18.662,-62.73,-103.39,0.0000,0.0000,0.0000,0.000,0.000,0.000,0.00,0.00,-11.27,44.74,56.01
5639,0.00,0.00,0.00,0.6462,0.7842,0.0803,13.241,-11.162,22.904,-36.64,93.83,0.6992,-0.7070,-0.1665,-7.132,-60.028,-19.944,-63.20,-103.48,0.0000,0.0000,0.0000,0.000,0.000,0.000,0.00,0.00,-11.33,45.05,56.38
5663,0.00,0.00,0.00,0.6230,0.7715,0.1274,16.447,-2.888,24.156,-36.75,93.96,0.7036,-0.7292,-0.1633,-17.590,-56.914,-17.043,-64.16,-103.89,0.0000,0.0000,0.0000,0.000,0.000,0.000,0.00,0.00,-11.44,45.35,56.79
5677,0.00,0.00,0.00,0.6282,0.7690,0.1162,14.523,-8.842,26.706,-36.92,93.92,0.7065,-0.7178,-0.1606,-22.765,-46.257,-15.028,-64.40,-104.18,0.0000,0.0000,0.0000,0.000,0.000,0.000,0.00,0.00,-11.55,45.65,57.19
5702,0.00,0.00,0.00,0.6338,0.7734,0.0789,8.172,-8.552,28.492,-37.17,93.92,0.7209,-0.7019,-0.1824,-18.826,-39.357,-15.135,-64.95,-104.64,0.0000,0.0000,0.0000,0.000,0.000,0.000,0.00,0.00,-11.67,45.93,57.61
5716,0.00,0.00,0.00,0.6482,0.7864,0.0352,1.378,-10.949,30.782,-37.36,93.81,0.7356,-0.6748,-0.1897,-19.147,-41.921,-16.601,-65.16,-104.93,0.0000,0.0000,0.0000,0.000,0.000,0.000,0.00,0.00,-11.79,46.22,58.00
5730,0.00,0.00,0.00,0.6609,0.7876,0.0381,4.035,-7.620,30.141,-37.52,93.73,0.7344,-0.6653,-0.1726,-11.910,-46.044,-20.188,-65.44,-105.08,0.0000,0.0000,0.0000,0.000,0.000,0.000,0.00,0.00,-11.90,46.49,58.39
5755,0.00,0.00,0.00,0.6340,0.7751,0.0356,6.538,2.471,22.920,-37.50,93.76,0.7312,-0.6755,-0.1807,-5.223,-45.998,-22.631,-66.16,-105.21,0.0000,0.0000,0.0000,0.000,0.000,0.000,0.00,0.00,-12.06,46.74,58.80
5769,0.00,0.00,0.00,0.6309,0.7786,0.0291,6.386,3.051,18.492,-37.48,93.73,0.7441,-0.6726,-0.1892,-6.109,-44.227,-22.601,-66.41,-105.31,0.0000,0.0000,0.0000,0.000,0.000,0.000,0.00,0.00,-12.23,46.98,59.20
5784,0.00,0.00,0.00,0.6353,0.7844,0.0393,3.348,0.151,18.996,-37.51,93.65,0.7664,-0.6699,-0.1917,-5.238,-39.631,-17.944,-66.59,-105.39,0.0000,0.0000,0.0000,0.000,0.000,0.000,0.00,0.00,-12.39,47.20,59.59
5808,0.00,0.00,0.00,0.6426,0.7781,0.0496,5.546,-2.414,16.828,-37.61,93.64,0.7678,-0.6702,-0.2175,-4.170,-30.731,-16.448,-66.94,-105.54,0.0000,0.0000,0.0000,0.000,0.000,0.000,0.00,0.00,-12.56,47.41,59.97
5822,0.00,0.00,0.00,0.6604,0.7698,0.0557,6.477,-3.224,15.225,-37.71,93.57,0.7520,-0.6582,-0.2302,-4.551,-27.036,-13.608,-66.92,-105.68,0.0000,0.0000,0.0000,0.000,0.000,0.000,0.00,0.00,-12.71,47.61,60.32
5836,0.00,0.00,0.00,0.6631,0.7625,0.0383,-3.339,-1.407,20.599,-37.80,93.39,0.7446,-0.6541,-0.2419,-7.651,-21.250,-12.494,-66.82,-105.88,0.0000,0.0000,0.0000,0.000,0.000,0.000,0.00,0.00,-12.84,47.80,60.65
5861,0.00,0.00,0.00,0.6562,0.7356,0.0449,-4.546,-5.620,25.149,-38.01,93.15,0.7305,-0.6809,-0.2288,-13.086,-23.967,-11.624,-66.97,-106.25,0.0000,0.0000,0.0000,0.000,0.000,0.000,0.00,0.00,-12.95,48.00,60.96
5875,0.00,0.00,0.00,0.6714,0.7456,0.0876,-0.469,-7.880,22.294,-38.20,92.94,0.7349,-0.6826,-0.2415,-11.208,-19.937,-9.853,-66.81,-106.47,0.0000,0.0000,0.0000,0.000,0.000,0.000,0.00,0.00,-13.04,48.20,61.23
5890,0.00,0.00,0.00,0.6736,0.7673,0.0569,-1.416,-7.330,22.645,-38.36,92.78,0.7380,-0.6528,-0.2563,-9.269,-22.868,-8.524,-66.73,-106.70,0.0000,0.0000,0.0000,0.000,0.000,0.000,0.00,0.00,-13.10,48.39,61.49
5914,0.00,0.00,0.00,0.6860,0.7285,0.0027,-5.630,-6.369,24.141,-38.61,92.59,0.7378,-0.6494,-0.2444,-10.872,-23.799,-6.860,-66.90,-107.04,0.0000,0.0000,0.0000,0.000,0.000,0.000,0.00,0.00,-13.14,48.59,61.73
5928,0.00,0.00,0.00,0.6895,0.7090,0.0217,0.783,-4.536,23.408,-38.79,92.51,0.7295,-0.6960,-0.2285,-14.277,-27.265,-8.127,-66.84,-107.26,0.0000,0.0000,0.0000,0.000,0.000,0.000,0.00,0.00,-13.17,48.78,61.96
5942,0.00,0.00,0.00,0.6904,0.7131,0.0247,5.958,-0.307,20.187,-38.89,92.50,0.7358,-0.6890,-0.2327,-9.330,-24.990,-10.082,-66.76,-107.42,0.0000,0.0000,0.0000,0.000,0.000,0.000,0.00,0.00,-13.19,48.97,62.16
5967,0.00,0.00,0.00,0.6899,0.7451,0.0166,9.256,2.395,15.454,-38.91,92.65,0.7646,-0.5981,-0.2612,-1.132,-24.624,-11.211,-67.01,-107.57,0.0000,0.0000,0.0000,0.000,0.000,0.000,0.00,0.00,-13.22,49.15,62.37
5981,0.00,0.00,0.00,0.7007,0.7307,0.0183,4.401,0.792,17.225,-39.00,92.63,0.7583,-0.6074,-0.2810,-0.811,-23.326,-13.089,-66.96,-107.73,0.0000,0.0000,0.0000,0.000,0.000,0.000,0.00,0.00,-13.23,49.32,62.56
5995,0.00,0.00,0.00,0.7004,0.7190,0.0237,1.806,-4.140,21.881,-39.16,92.57,0.7478,-0.6123,-0.3269,-3.345,-23.952,-14.036,-66.90,-107.98,0.0000,0.0000,0.0000,0.000,0.000,0.000,0.00,0.00,-13.24,49.49,62.73
6020,0.00,0.00,0.00,0.7454,0.6936,-0.0217,5.180,-11.682,28.065,-39.60,92.67,0.7712,-0.5845,-0.3494,-14.536,-31.204,-10.921,-67.28,-108.59,0.0000,0.0000,0.0000,0.000,0.000,0.000,0.00,0.00,-13.23,49.68,62.92
6034,0.00,0.00,0.00,0.7661,0.6633,-0.0442,6.019,-11.010,35.607,-39.94,92.78,0.8040,-0.5764,-0.3545,-15.834,-31.402,-11.471,-67.37,-109.07,0.0000,0.0000,0.0000,0.000,0.000,0.000,0.00,0.00,-13.21,49.88,63.09
6059,0.00,0.00,0.00,0.7666,0.6443,-0.0571,8.080,-15.147,48.813,-40.50,93.02,0.8230,-0.5930,-0.3652,-20.383,-36.654,-18.845,-67.90,-109.81,0.0000,0.0000,0.0000,0.000,0.000,0.000,0.00,0.00,-13.19,50.11,63.30
6073,0.00,0.00,0.00,0.7151,0.6941,-0.0388,20.508,-13.773,48.110,-40.80,93.31,0.8152,-0.5703,-0.3083,-32.185,-36.379,-23.792,-68.08,-110.43,0.0000,0.0000,0.0000,0.000,0.000,0.000,0.00,0.00,-13.16,50.34,63.50
6097,0.00,0.00,0.00,0.6870,0.7437,0.0212,16.386,-17.911,40.782,-41.27,93.60,0.7715,-0.6533,-0.2542,-38.551,-33.036,-25.227,-68.46,-111.37,0.0000,0.0000,0.0000,0.000,0.000,0.000,0.00,0.00,-13.13,50.59,63.72
6112,0.00,0.00,0.00,0.6931,0.7454,0.0615,16.264,-18.811,32.553,-41.56,93.66,0.7419,-0.6836,-0.2622,-29.055,-25.357,-21.227,-68.36,-111.76,0.0000,0.0000,0.0000,0.000,0.000,0.000,0.00,0.00,-13.07,50.84,63.91
6136,0.00,0.00,0.00,0.7024,0.7422,0.0894,-3.217,-16.552,32.095,-41.99,93.38,0.7190,-0.6763,-0.3083,-22.536,-14.715,-6.219,-68.22,-112.36,0.0000,0.0000,0.0000,0.000,0.000,0.000,0.00,0.00,-12.98,51.10,64.08
6150,0.00,0.00,0.00,0.6985,0.7085,0.0991,-1.660,-13.376,27.897,-42.23,93.13,0.7068,-0.7085,-0.2856,-20.719,-11.784,-4.066,-67.88,-112.64,0.0000,0.0000,0.0000,0.000,0.000,0.000,0.00,0.00,-12.85,51.36,64.21
6174,0.00,0.00,0.00,0.7070,0.6416,0.0657,6.890,-4.643,15.408,-42.44,93.11,0.6592,-0.7341,-0.2458,-9.269,-13.830,-10.234,-67.66,-112.78,0.0000,0.0000,0.0000,0.000,0.000,0.000,0.00,0.00,-12.70,51.62,64.32
6189,0.00,0.00,0.00,0.7073,0.6543,0.0847,15.882,-1.972,11.240,-42.56,93.12,0.6499,-0.7441,-0.2510,-0.506,-18.013,-10.295,-67.35,-112.70,0.0000,0.0000,0.0000,0.000,0.000,0.000,0.00,0.00,-12.53,51.87,64.40
6203,0.00,0.00,0.00,0.7117,0.6975,0.0696,16.157,3.937,6.675,-42.57,93.17,0.6750,-0.6980,-0.2817,3.281,-16.853,-7.547,-67.07,-112.64,0.0000,0.0000,0.0000,0.000,0.000,0.000,0.00,0.00,-12.36,52.10,64.45
6227,0.00,0.00,0.00,0.6892,0.7297,0.0352,23.500,2.715,2.752,-42.52,93.62,0.7212,-0.6106,-0.2935,5.937,-15.876,-6.234,-67.05,-112.56,0.0000,0.0000,0.0000,0.000,0.000,0.000,0.00,0.00,-12.20,52.31,64.50
6242,0.00,0.00,0.00,0.7163,0.7190,0.0393,20.462,3.265,1.072,-42.52,93.77,0.7271,-0.6121,-0.3057,0.365,-17.891,-8.158,-66.89,-112.64,0.0000,0.0000,0.0000,0.000,0.000,0.000,0.00,0.00,-12.03,52.51,64.54
6256,0.00,0.00,0.00,0.7273,0.7056,0.0229,17.073,7.097,-0.851,-42.48,93.89,0.7434,-0.6201,-0.3423,-0.246,-15.051,-6.830,-66.69,-112.76,0.0000,0.0000,0.0000,0.000,0.000,0.000,0.00,0.00,-11.87,52.69,64.56
6280,273.19,257.88,0.00,0.7371,0.6748,-0.0222,13.699,4.380,-1.996,-42.48,94.18,0.7764,-0.5898,-0.3552,4.288,-10.089,-5.792,-66.57,-112.83,0.0000,0.0000,0.0000,0.000,0.000,0.000,0.00,0.00,-11.71,52.85,64.56
6294,0.00,0.00,0.00,0.7463,0.6680,-0.0303,14.187,1.525,-2.729,-42.57,94.34,0.7847,-0.5850,-0.3469,2.288,-10.089,-5.440,-66.36,-112.95,0.0000,0.0000,0.0000,0.000,0.000,0.000,0.00,0.00,-11.54,53.02,64.56
6309,0.00,0.00,0.00,0.7383,0.6914,-0.0310,9.897,1.662,-2.119,-42.63,94.45,0.7871,-0.5962,-0.3240,0.013,-11.738,-3.181,-66.18,-113.06,0.0000,0.0000,0.0000,0.000,0.000,0.000,0.00,0.00,-11.37,53.17,64.54
6333,3300.00,3300.00,1789.01,0.7178,0.7341,-0.0017,6.935,2.944,-7.019,-42.60,94.53,0.7820,-0.6257,-0.3206,-1.651,-4.212,3.979,-65.92,-113.18,0.0000,0.0000,0.0000,0.000,0.000,0.000,0.00,0.00,-11.19,53.31,64.50
6347,3300.00,3299.19,0.00,0.7168,0.7534,0.0488,1.653,2.120,-11.248,-42.59,94.39,0.7722,-0.6338,-0.3157,-5.269,1.743,8.804,-65.52,-113.32,0.0000,0.0000,0.0000,0.000,0.000,0.000,0.00,0.00,-11.00,53.44,64.44
6372,1658.46,1938.10,3300.00,0.6868,0.7644,0.0771,-10.042,-5.849,-8.500,-42.71,93.94,0.7329,-0.6787,-0.2891,-15.162,6.002,13.033,-64.97,-113.68,0.0000,0.0000,0.0000,0.000,0.000,0.000,0.00,0.00,-10.77,53.57,64.35
6386,3300.00,3300.00,3300.00,0.6709,0.7437,0.0813,-14.836,-1.437,-2.699,-42.72,93.53,0.6934,-0.7388,-0.2603,-14.857,6.552,16.667,-64.40,-113.80,0.0000,0.0000,0.0000,0.000,0.000,0.000,0.00,0.00,-10.52,53.70,64.22
6411,0.00,0.00,0.00,0.7070,0.6943,0.0540,-9.462,14.944,-14.378,-42.41,93.14,0.6738,-0.7368,-0.2498,-9.422,8.872,24.331,-63.72,-113.93,0.0000,0.0000,0.0000,0.000,0.000,0.000,0.00,0.00,-10.26,53.79,64.05
6425,0.00,0.00,0.00,0.6802,0.6987,0.0325,-9.859,15.128,-19.233,-42.24,92.89,0.6890,-0.6633,-0.2715,-3.941,5.987,25.842,-63.24,-113.95,0.0000,0.0000,0.0000,0.000,0.000,0.000,0.00,0.00,-10.00,53.86,63.86
6439,0.00,0.00,0.00,0.7004,0.6731,-0.0337,-12.729,16.883,-21.935,-42.08,92.71,0.7231,-0.5999,-0.2830,12.304,0.384,22.789,-62.92,-113.80,0.0000,0.0000,0.0000,0.000,0.000,0.000,0.00,0.00,-9.74,53.92,63.66
6464,62.86,310.26,0.00,0.7261,0.6460,-0.0989,-13.065,29.662,-17.783,-41.49,92.52,0.7732,-0.5632,-0.3455,34.197,-4.227,9.720,-62.75,-113.14,0.0000,0.0000,0.0000,0.000,0.000,0.000,0.00,0.00,-9.54,53.93,63.47
6478,0.00,0.00,0.00,0.7485,0.6570,-0.0994,-0.133,27.952,-18.577,-41.23,92.64,0.7959,-0.5679,-0.3428,41.052,-10.303,-0.188,-62.65,-112.72,0.0000,0.0000,0.0000,0.000,0.000,0.000,0.00,0.00,-9.35,53.92,63.28
6492,0.00,0.00,0.00,0.7402,0.6687,-0.0571,9.836,25.235,-19.386,-41.01,92.82,0.8069,-0.5710,-0.3594,38.868,-8.334,-6.234,-62.51,-112.37,0.0000,0.0000,0.0000,0.000,0.000,0.000,0.00,0.00,-9.19,53.90,63.09
6517,3300.00,3300.00,311.06,0.7314,0.7058,-0.0098,9.653,13.280,-14.180,-40.79,93.01,0.8074,-0.5713,-0.3713,20.975,-3.754,-3.517,-62.35,-112.07,0.0000,0.0000,0.0000,0.000,0.000,0.000,0.00,0.00,-9.04,53.87,62.91
6531,3300.00,3300.00,0.00,0.7427,0.7153,0.0193,5.958,12.303,-11.844,-40.72,93.01,0.7979,-0.5872,-0.3604,12.884,2.720,2.819,-62.05,-112.08,0.0000,0.0000,0.0000,0.000,0.000,0.000,0.00,0.00,-8.89,53.83,62.71
6556,3296.78,3300.00,3300.00,0.7097,0.7373,0.0630,-1.828,15.540,-10.638,-40.41,92.80,0.7539,-0.6697,-0.3040,7.952,13.010,11.369,-61.41,-111.94,0.0000,0.0000,0.0000,0.000,0.000,0.000,0.00,0.00,-8.72,53.77,62.49
6570,3300.00,3300.00,3300.00,0.7031,0.7332,0.0789,-4.713,17.311,-16.088,-40.23,92.56,0.7234,-0.7085,-0.2805,9.006,17.025,15.277,-60.81,-111.81,0.0000,0.0000,0.0000,0.000,0.000,0.000,0.00,0.00,-8.54,53.70,62.24
6594,0.00,66.08,0.00,0.6877,0.7317,0.0757,-10.332,16.624,-21.951,-39.89,92.14,0.6924,-0.7048,-0.2769,16.945,18.002,21.323,-60.01,-111.39,0.0000,0.0000,0.0000,0.000,0.000,0.000,0.00,0.00,-8.33,53.62,61.95
6608,0.00,3300.00,3300.00,0.6865,0.7119,0.0757,-9.339,19.922,-24.485,-39.69,91.85,0.6755,-0.7083,-0.2561,14.471,18.918,23.888,-59.39,-111.16,0.0000,0.0000,0.0000,0.000,0.000,0.000,0.00,0.00,-8.11,53.53,61.64
6633,3300.00,3300.00,3300.00,0.6917,0.6885,0.0872,-0.698,27.570,-30.607,-39.14,91.65,0.6565,-0.7034,-0.2395,21.006,14.811,21.033,-58.68,-110.61,0.0000,0.0000,0.0000,0.000,0.000,0.000,0.00,0.00,-7.90,53.40,61.30
6647,3300.00,3300.00,1611.72,0.6858,0.6763,0.0542,0.248,31.005,-34.775,-38.83,91.53,0.6694,-0.6841,-0.2627,35.021,12.598,20.300,-58.17,-110.13,0.0000,0.0000,0.0000,0.000,0.000,0.000,0.00,0.00,-7.69,53.26,60.95
6672,2603.74,3300.00,3300.00,0.6777,0.7161,0.0125,1.073,40.822,-33.248,-37.94,91.50,0.6990,-0.6138,-0.2729,37.143,5.575,15.918,-57.80,-109.31,0.0000,0.0000,0.0000,0.000,0.000,0.000,0.00,0.00,-7.52,53.07,60.60
6686,3300.00,3300.00,3300.00,0.6841,0.7209,0.0029,5.409,39.815,-29.615,-37.49,91.54,0.7231,-0.6255,-0.2771,38.670,4.949,10.147,-57.51,-108.87,0.0000,0.0000,0.0000,0.000,0.000,0.000,0.00,0.00,-7.38,52.86,60.25
6711,0.00,0.00,0.00,0.6919,0.7456,0.0134,13.500,36.639,-28.348,-36.72,91.82,0.7686,-0.6228,-0.3105,28.304,9.651,6.331,-57.08,-108.34,0.0000,0.0000,0.0000,0.000,0.000,0.000,0.00,0.00,-7.28,52.62,59.89
6725,0.00,0.00,0.00,0.6836,0.7537,0.0349,7.638,21.891,-27.996,-36.52,91.84,0.8003,-0.6094,-0.3003,25.601,13.666,6.743,-56.74,-108.14,0.0000,0.0000,0.0000,0.000,0.000,0.000,0.00,0.00,-7.17,52.37,59.54
6739,0.00,96.70,0.00,0.7073,0.7693,0.0093,0.401,21.051,-26.989,-36.35,91.79,0.8140,-0.6091,-0.3096,28.319,18.201,10.086,-56.35,-107.92,0.0000,0.0000,0.0000,0.000,0.000,0.000,0.00,0.00,-7.05,52.13,59.18
6764,66.89,373.92,0.00,0.7087,0.7510,0.0247,-8.881,21.036,-21.325,-35.98,91.50,0.7942,-0.6523,-0.2922,24.899,21.911,18.270,-55.66,-107.44,0.0000,0.0000,0.0000,0.000,0.000,0.000,0.00,0.00,-6.92,51.88,58.81
6778,0.00,0.00,0.00,0.7188,0.7539,0.0005,-4.393,22.563,-23.813,-35.81,91.41,0.7844,-0.6501,-0.2896,16.533,20.369,22.086,-55.21,-107.34,0.0000,0.0000,0.0000,0.000,0.000,0.000,0.00,0.00,-6.78,51.64,58.42
6792,0.00,0.00,0.00,0.6897,0.7502,0.0369,-3.248,23.051,-24.317,-35.62,91.28,0.7661,-0.6655,-0.2598,15.372,22.949,25.308,-54.72,-107.20,0.0000,0.0000,0.0000,0.000,0.000,0.000,0.00,0.00,-6.63,51.40,58.03
6817,3300.00,3300.00,1922.78,0.6968,0.7375,0.0254,-7.523,20.532,-32.088,-35.29,91.03,0.7480,-0.6794,-0.2275,19.586,29.880,27.842,-53.84,-106.76,0.0000,0.0000,0.0000,0.000,0.000,0.000,0.00,0.00,-6.45,51.15,57.60
6831,946.89,1508.57,0.00,0.6672,0.7319,0.0637,-8.759,20.914,-35.935,-35.13,90.79,0.7397,-0.6743,-0.2495,37.281,29.330,26.346,-53.27,-106.31,0.0000,0.0000,0.0000,0.000,0.000,0.000,0.00,0.00,-6.25,50.92,57.17
6856,0.00,120.07,0.00,0.6824,0.7410,0.0720,-11.614,13.708,-35.432,-34.95,90.38,0.7297,-0.6562,-0.2742,37.097,32.598,26.605,-52.33,-105.54,0.0000,0.0000,0.0000,0.000,0.000,0.000,0.00,0.00,-6.02,50.68,56.70
6870,3300.00,3300.00,3300.00,0.6655,0.7485,0.0828,-4.591,9.357,-31.401,-34.95,90.19,0.7000,-0.6755,-0.2639,32.105,29.758,23.705,-51.75,-105.21,0.0000,0.0000,0.0000,0.000,0.000,0.000,0.00,0.00,-5.76,50.46,56.22
6895,0.00,0.00,0.00,0.6626,0.7524,0.1106,2.355,12.547,-30.149,-34.77,90.07,0.6794,-0.7212,-0.2312,11.372,31.468,26.789,-50.79,-104.99,0.0000,0.0000,0.0000,0.000,0.000,0.000,0.00,0.00,-5.46,50.24,55.71
6909,0.00,0.00,0.00,0.6575,0.7812,0.1326,0.523,8.593,-30.302,-34.75,89.89,0.6780,-0.6863,-0.2427,7.571,31.605,28.331,-50.20,-104.97,0.0000,0.0000,0.0000,0.000,0.000,0.000,0.00,0.00,-5.15,50.04,55.19
6923,399.71,1031.50,1676.19,0.6680,0.7927,0.1096,-6.301,8.013,-31.065,-34.74,89.64,0.6821,-0.6821,-0.2549,9.968,33.224,29.063,-49.59,-104.94,0.0000,0.0000,0.0000,0.000,0.000,0.000,0.00,0.00,-4.81,49.85,54.66
6948,3300.00,3300.00,3300.00,0.6843,0.7622,0.1011,-22.637,1.601,-22.546,-34.84,88.95,0.6768,-0.6946,-0.2534,5.449,36.079,30.957,-48.58,-104.91,0.0000,0.0000,0.0000,0.000,0.000,0.000,0.00,0.00,-4.42,49.68,54.11
6962,0.00,453.70,0.00,0.6870,0.7444,0.0972,-21.263,6.746,-20.836,-34.90,88.53,0.6855,-0.7290,-0.2439,9.357,33.407,29.109,-47.98,-104.85,0.0000,0.0000,0.0000,0.000,0.000,0.000,0.00,0.00,-4.01,49.53,53.54
6986,3300.00,3300.00,3300.00,0.7097,0.7361,0.0667,-6.790,12.135,-22.653,-34.79,88.29,0.6958,-0.7463,-0.2417,14.975,27.392,22.331,-47.19,-104.56,0.0000,0.0000,0.0000,0.000,0.000,0.000,0.00,0.00,-3.59,49.38,52.97
7001,3300.00,3300.00,3300.00,0.7139,0.7124,0.0605,-3.156,14.670,-23.432,-34.78,88.18,0.6973,-0.7441,-0.2151,11.647,24.888,19.537,-46.74,-104.42,0.0000,0.0000,0.0000,0.000,0.000,0.000,0.00,0.00,-3.16,49.24,52.40
7025,0.00,0.00,73.33,0.6934,0.7488,0.0881,1.256,24.410,-28.607,-34.36,88.12,0.7107,-0.7559,-0.1953,17.632,26.262,18.651,-46.02,-104.00,0.0000,0.0000,0.0000,0.000,0.000,0.000,0.00,0.00,-2.74,49.08,51.82
7039,3300.00,3300.00,3300.00,0.6575,0.7827,0.1008,-10.408,25.341,-28.973,-34.11,87.86,0.7292,-0.7195,-0.2524,29.113,26.216,18.621,-45.61,-103.70,0.0000,0.0000,0.0000,0.000,0.000,0.000,0.00,0.00,-2.34,48.91,51.25
7064,3300.00,3300.00,3300.00,0.7231,0.7468,0.0613,-19.431,15.876,-33.554,-33.92,87.34,0.7417,-0.6550,-0.2979,45.846,26.659,25.521,-44.97,-102.81,0.0000,0.0000,0.0000,0.000,0.000,0.000,0.00,0.00,-1.93,48.75,50.68
7078,0.00,0.00,0.00,0.7190,0.7273,0.0320,-12.362,22.089,-33.615,-33.83,87.17,0.7261,-0.6855,-0.2383,43.449,25.239,26.193,-44.62,-102.33,0.0000,0.0000,0.0000,0.000,0.000,0.000,0.00,0.00,-1.54,48.59,50.12
7103,3300.00,3300.00,3300.00,0.5972,0.8220,0.0791,6.966,33.799,-34.302,-33.06,87.29,0.7026,-0.7471,-0.1145,21.876,24.430,19.857,-44.00,-101.74,0.0000,0.0000,0.0000,0.000,0.000,0.000,0.00,0.00,-1.18,48.38,49.56
7117,3300.00,3300.00,3300.00,0.5747,0.8547,0.1187,9.622,28.364,-33.859,-32.68,87.32,0.6975,-0.7429,-0.0974,23.479,26.750,14.773,-43.61,-101.32,0.0000,0.0000,0.0000,0.000,0.000,0.000,0.00,0.00,-0.85,48.16,49.01
7141,175.68,906.59,1552.09,0.5225,0.8928,0.1326,-9.156,13.036,-32.821,-32.32,86.98,0.7080,-0.7173,-0.0916,16.487,39.376,20.010,-42.68,-100.85,0.0000,0.0000,0.0000,0.000,0.000,0.000,0.00,0.00,-0.50,47.94,48.44
7156,3300.00,3300.00,3300.00,0.5354,0.8635,0.1694,-17.263,-0.750,-36.973,-32.31,86.58,0.6855,-0.7136,-0.0889,6.502,45.285,26.453,-42.06,-100.68,0.0000,0.0000,0.0000,0.000,0.000,0.000,0.00,0.00,-0.14,47.72,47.86
7180,3300.00,3300.00,3300.00,0.5808,0.8313,0.1580,-24.668,-6.017,-36.317,-32.49,85.83,0.6587,-0.7986,-0.1221,5.784,57.361,33.231,-40.62,-100.50,0.0000,0.0000,0.0000,0.000,0.000,0.000,0.00,0.00,0.32,47.54,47.22
7194,0.00,981.54,0.00,0.6094,0.8223,0.1636,-24.546,-6.506,-40.836,-32.66,85.35,0.6580,-0.8167,-0.1416,14.441,55.254,36.254,-39.81,-100.29,0.0000,0.0000,0.0000,0.000,0.000,0.000,0.00,0.00,0.81,47.38,46.57
7219,3300.00,3300.00,3300.00,0.5867,0.8113,0.1606,-26.149,-6.384,-45.080,-32.86,84.59,0.6365,-0.7825,-0.0984,35.372,48.643,35.842,-38.62,-99.37,0.0000,0.0000,0.0000,0.000,0.000,0.000,0.00,0.00,1.37,47.25,45.88
7233,3300.00,3300.00,3300.00,0.5803,0.8162,0.2178,-23.782,-9.712,-47.462,-33.03,84.07,0.6216,-0.7815,-0.1050,47.678,48.567,34.529,-37.93,-98.67,0.0000,0.0000,0.0000,0.000,0.000,0.000,0.00,0.00,1.94,47.13,45.19
7258,1382.86,1585.93,2359.56,0.6082,0.7698,0.1609,-34.088,-3.666,-44.210,-33.21,83.13,0.5869,-0.7859,-0.1316,34.288,44.995,34.941,-36.82,-97.87,0.0000,0.0000,0.0000,0.000,0.000,0.000,0.00,0.00,2.57,47.04,44.47
7272,3300.00,3300.00,3300.00,0.6147,0.7791,0.1321,-35.889,-0.674,-42.363,-33.32,82.57,0.6069,-0.7642,-0.1284,21.250,45.025,36.926,-36.22,-97.60,0.0000,0.0000,0.0000,0.000,0.000,0.000,0.00,0.00,3.20,46.96,43.76
7296,1545.64,2296.70,0.00,0.5972,0.7896,0.1423,-27.752,5.158,-39.935,-33.26,81.85,0.6345,-0.7969,-0.1270,27.082,38.308,28.667,-35.33,-96.98,0.0000,0.0000,0.0000,0.000,0.000,0.000,0.00,0.00,3.84,46.88,43.04
7311,0.00,0.00,0.00,0.6116,0.8164,0.1396,-15.110,-2.888,-40.378,-33.36,81.61,0.6323,-0.7969,-0.0859,38.136,29.498,21.750,-34.98,-96.44,0.0000,0.0000,0.0000,0.000,0.000,0.000,0.00,0.00,4.48,46.82,42.34
7325,0.00,0.00,0.00,0.6135,0.7947,0.1221,-12.133,-1.849,-43.386,-33.47,81.43,0.6580,-0.7698,-0.1199,46.304,30.552,19.415,-34.66,-95.83,0.0000,0.0000,0.0000,0.000,0.000,0.000,0.00,0.00,5.09,46.77,41.67
7350,3300.00,3300.00,3300.00,0.5991,0.8093,0.1050,-18.378,4.960,-37.019,-33.41,81.02,0.6731,-0.6936,-0.1499,47.937,26.735,17.918,-34.19,-94.81,0.0000,0.0000,0.0000,0.000,0.000,0.000,0.00,0.00,5.70,46.71,41.02
7364,431.14,1409.45,0.00,0.6411,0.8130,0.0603,-13.813,4.135,-33.325,-33.44,80.92,0.7227,-0.7214,-0.1538,28.319,29.453,17.048,-33.98,-94.56,0.0000,0.0000,0.0000,0.000,0.000,0.000,0.00,0.00,6.27,46.67,40.39
7388,3137.22,3300.00,2550.55,0.6599,0.8101,0.0557,-7.981,11.708,-30.241,-33.28,80.83,0.7251,-0.7883,-0.0552,17.525,24.002,11.934,-33.58,-94.13,0.0000,0.0000,0.0000,0.000,0.000,0.000,0.00,0.00,6.83,46.61,39.78
7402,3300.00,3300.00,3300.00,0.5798,0.8562,0.0991,1.180,18.135,-32.973,-33.04,80.90,0.7222,-0.8066,-0.0039,20.212,24.613,8.483,-33.40,-93.77,0.0000,0.0000,0.0000,0.000,0.000,0.000,0.00,0.00,7.34,46.54,39.20
7427,0.00,0.00,0.00,0.4458,0.9785,0.1648,-6.881,9.586,-37.096,-32.63,80.72,0.6934,-0.7837,0.0347,26.212,32.827,8.086,-32.78,-93.01,0.0000,0.0000,0.0000,0.000,0.000,0.000,0.00,0.00,7.83,46.45,38.62
7441,0.00,0.00,0.00,0.4790,0.9478,0.1743,-22.469,-2.323,-39.050,-32.54,80.39,0.6787,-0.7524,-0.0210,26.807,38.964,13.628,-32.42,-92.61,0.0000,0.0000,0.0000,0.000,0.000,0.000,0.00,0.00,8.30,46.36,38.06
7455,2609.38,2849.52,1517.44,0.5410,0.9314,0.1692,-43.553,-11.972,-34.638,-32.65,79.77,0.6631,-0.7385,-0.0408,13.922,43.514,27.201,-32.00,-92.43,0.0000,0.0000,0.0000,0.000,0.000,0.000,0.00,0.00,8.78,46.28,37.50
7480,350.55,1072.60,0.00,0.5857,0.8394,0.1567,-57.431,-3.834,-24.348,-32.78,78.38,0.6494,-0.8423,-0.0273,10.609,40.750,33.613,-31.13,-92.16,0.0000,0.0000,0.0000,0.000,0.000,0.000,0.00,0.00,9.30,46.22,36.92
7494,0.00,0.00,0.00,0.5818,0.9185,0.3750,-69.675,-1.147,-16.286,-32.75,77.19,0.6316,-0.8806,-0.0195,19.891,38.201,33.781,-30.69,-91.87,0.0000,0.0000,0.0000,0.000,0.000,0.000,0.00,0.00,9.80,46.16,36.35
7508,0.00,0.00,0.00,0.5361,0.8582,0.1570,-43.553,11.647,-37.737,-32.56,76.63,0.6279,-0.8584,0.0225,29.769,33.926,35.644,-30.33,-91.38,0.0000,0.0000,0.0000,0.000,0.000,0.000,0.00,0.00,10.29,46.09,35.80
7533,3300.00,3300.00,3300.00,0.4160,0.9219,0.2529,-30.439,9.250,-49.325,-32.16,75.87,0.5833,-0.7756,0.0410,40.334,41.254,33.399,-29.47,-90.33,0.0000,0.0000,0.0000,0.000,0.000,0.000,0.00,0.00,10.77,45.99,35.22
7547,3300.00,3300.00,2380.51,0.4141,0.8967,0.2622,-31.630,-0.506,-49.294,-32.00,75.38,0.5515,-0.7480,0.0244,31.464,46.231,35.002,-28.97,-89.85,0.0000,0.0000,0.0000,0.000,0.000,0.000,0.00,0.00,11.24,45.90,34.65
7572,3300.00,3300.00,3300.00,0.4915,0.8333,0.2456,-40.255,-10.430,-42.470,-32.20,74.38,0.5396,-0.8091,0.0276,18.075,47.804,38.117,-27.91,-89.38,0.0000,0.0000,0.0000,0.000,0.000,0.000,0.00,0.00,11.77,45.82,34.05
7586,3300.00,3300.00,3300.00,0.5076,0.8420,0.2383,-37.049,-4.735,-39.554,-32.22,73.86,0.5508,-0.8428,0.0039,18.487,45.987,32.239,-27.37,-89.13,0.0000,0.0000,0.0000,0.000,0.000,0.000,0.00,0.00,12.30,45.75,33.45
7610,0.00,0.00,0.00,0.5107,0.8767,0.2136,-22.271,9.387,-36.012,-31.94,73.37,0.5747,-0.8638,0.0400,20.487,39.376,21.613,-26.55,-88.60,0.0000,0.0000,0.0000,0.000,0.000,0.000,0.00,0.00,12.83,45.66,32.83
7624,2184.69,1534.36,202.27,0.4980,0.8906,0.2188,-18.546,11.555,-37.477,-31.71,73.17,0.5752,-0.8311,0.0769,12.700,33.437,22.957,-26.25,-88.35,0.0000,0.0000,0.0000,0.000,0.000,0.000,0.00,0.00,13.33,45.57,32.24
7639,3300.00,3300.00,3300.00,0.4504,0.8953,0.2375,-13.920,11.189,-39.767,-31.44,73.01,0.5930,-0.8015,0.0549,-1.803,44.613,23.277,-25.82,-88.33,0.0000,0.0000,0.0000,0.000,0.000,0.000,0.00,0.00,13.80,45.46,31.66
7663,1921.17,2747.18,229.67,0.4734,0.9570,0.1985,-16.026,3.021,-36.500,-31.26,72.73,0.6316,-0.7888,0.0781,3.204,45.483,25.002,-24.98,-88.17,0.0000,0.0000,0.0000,0.000,0.000,0.000,0.00,0.00,14.29,45.35,31.06
7678,0.00,0.00,0.00,0.4668,0.9397,0.1980,-14.836,1.723,-37.157,-31.13,72.63,0.6335,-0.8169,0.0525,12.655,44.918,18.086,-24.61,-87.95,0.0000,0.0000,0.0000,0.000,0.000,0.000,0.00,0.00,14.76,45.24,30.48
7692,0.00,0.00,0.00,0.4851,0.9534,0.1682,-23.324,-0.720,-33.248,-31.05,72.45,0.6404,-0.8108,0.0759,20.624,43.666,16.285,-24.26,-87.60,0.0000,0.0000,0.0000,0.000,0.000,0.000,0.00,0.00,15.22,45.13,29.91
7717,3300.00,3300.00,3300.00,0.4678,0.9128,0.1760,-30.500,-0.567,-35.615,-30.97,71.85,0.6387,-0.8120,0.0894,10.548,52.521,23.842,-23.28,-87.27,0.0000,0.0000,0.0000,0.000,0.000,0.000,0.00,0.00,15.71,45.02,29.31
7731,3300.00,3300.00,1562.56,0.4419,0.9009,0.1814,-29.568,-4.201,-43.264,-30.93,71.57,0.6316,-0.8091,0.1135,16.090,51.895,23.979,-22.84,-86.94,0.0000,0.0000,0.0000,0.000,0.000,0.000,0.00,0.00,16.19,44.91,28.73
7755,3300.00,3300.00,3300.00,0.4021,0.9373,0.2327,-20.591,-3.865,-46.699,-30.85,71.17,0.5815,-0.8311,0.1267,18.227,48.643,26.163,-21.91,-86.39,0.0000,0.0000,0.0000,0.000,0.000,0.000,0.00,0.00,16.69,44.81,28.12
7770,3300.00,3300.00,3300.00,0.4006,0.9434,0.2458,-22.637,-6.430,-44.164,-30.77,70.94,0.5620,-0.8149,0.0857,12.013,47.575,28.728,-21.50,-86.17,0.0000,0.0000,0.0000,0.000,0.000,0.000,0.00,0.00,17.19,44.71,27.52
7794,1689.08,1802.71,0.00,0.4353,0.9131,0.2561,-25.202,-9.972,-36.515,-30.89,70.40,0.5188,-0.8303,0.0740,2.197,48.201,31.628,-20.55,-86.09,0.0000,0.0000,0.0000,0.000,0.000,0.000,0.00,0.00,17.72,44.62,26.90
7808,3300.00,2594.07,1185.42,0.4648,0.8923,0.2676,-17.813,-4.888,-39.141,-30.87,70.21,0.5090,-0.8789,0.0530,-2.139,47.025,35.002,-20.08,-86.13,0.0000,0.0000,0.0000,0.000,0.000,0.000,0.00,0.00,18.25,44.54,26.29
7833,3300.00,3300.00,3300.00,0.4463,0.9165,0.2961,-10.515,7.265,-42.699,-30.57,70.00,0.4998,-0.8857,0.0754,13.174,34.979,30.850,-19.43,-85.80,0.0000,0.0000,0.0000,0.000,0.000,0.000,0.00,0.00,18.77,44.45,25.68
7847,3300.00,3300.00,3300.00,0.4395,0.9214,0.3093,-11.278,13.112,-42.363,-30.26,69.87,0.4885,-0.8718,0.0620,9.983,30.933,31.506,-19.19,-85.66,0.0000,0.0000,0.0000,0.000,0.000,0.000,0.00,0.00,19.25,44.34,25.09
7872,3300.00,3300.00,3300.00,0.4058,0.9148,0.3088,-8.103,17.021,-40.622,-29.71,69.70,0.4968,-0.8833,0.1182,9.113,25.361,34.254,-18.78,-85.37,0.0000,0.0000,0.0000,0.000,0.000,0.000,0.00,0.00,19.68,44.19,24.52
7886,3300.00,3300.00,3300.00,0.3975,0.9036,0.2571,-9.523,23.005,-43.157,-29.25,69.66,0.4924,-0.8928,0.1304,4.166,22.689,38.804,-18.66,-85.24,0.0000,0.0000,0.0000,0.000,0.000,0.000,0.00,0.00,20.06,44.03,23.97
7910,3300.00,3300.00,2367.62,0.3511,0.9177,0.2607,-3.935,29.189,-47.996,-28.37,69.65,0.5063,-0.8164,0.1421,35.525,21.178,31.842,-18.41,-84.29,0.0000,0.0000,0.0000,0.000,0.000,0.000,0.00,0.00,20.36,43.82,23.45
7925,3300.00,3300.00,3300.00,0.3264,0.9414,0.2439,-14.072,24.685,-47.325,-27.83,69.57,0.5132,-0.8323,0.1536,40.120,24.353,29.659,-18.32,-83.63,0.0000,0.0000,0.0000,0.000,0.000,0.000,0.00,0.00,20.62,43.58,22.96
7949,3300.00,3300.00,3300.00,0.3723,0.9463,0.2324,-12.759,20.761,-53.813,-27.19,69.40,0.5359,-0.8264,0.1421,41.159,24.292,30.667,-18.02,-82.58,0.0000,0.0000,0.0000,0.000,0.000,0.000,0.00,0.00,20.83,43.31,22.48
7964,3300.00,3300.00,3300.00,0.3752,0.9646,0.2544,-13.339,20.609,-51.508,-26.77,69.33,0.5308,-0.8201,0.1438,31.601,21.407,32.239,-18.01,-82.08,0.0000,0.0000,0.0000,0.000,0.000,0.000,0.00,0.00,21.00,43.04,22.04
7988,3300.00,3300.00,3300.00,0.3467,0.9399,0.2563,-16.072,12.532,-41.477,-26.33,69.05,0.5366,-0.8362,0.1226,31.464,27.559,24.911,-17.64,-81.32,0.0000,0.0000,0.0000,0.000,0.000,0.000,0.00,0.00,21.15,42.75,21.60
8002,3300.00,3300.00,3300.00,0.3694,0.9656,0.2251,-9.981,6.288,-38.149,-26.12,69.07,0.5515,-0.8494,0.1021,33.998,27.453,18.834,-17.56,-80.87,0.0000,0.0000,0.0000,0.000,0.000,0.000,0.00,0.00,21.29,42.47,21.18
8027,2215.31,1667.33,0.00,0.4272,0.9607,0.2148,-9.920,9.311,-35.035,-25.84,68.99,0.5601,-0.8674,0.1277,17.159,26.857,25.247,-17.21,-80.48,0.0000,0.0000,0.0000,0.000,0.000,0.000,0.00,0.00,21.41,42.19,20.77
8041,3300.00,3300.00,2106.52,0.4351,0.9609,0.2183,-7.553,10.761,-34.729,-25.65,69.05,0.5615,-0.8640,0.1230,15.601,19.010,23.766,-17.26,-80.29,0.0000,0.0000,0.0000,0.000,0.000,0.000,0.00,0.00,21.52,41.91,20.39
8066,3300.00,3300.00,3300.00,0.3894,0.9604,0.2239,-18.775,18.395,-32.851,-25.13,68.76,0.5588,-0.8713,0.1509,18.502,25.285,16.911,-16.95,-79.84,0.0000,0.0000,0.0000,0.000,0.000,0.000,0.00,0.00,21.60,41.62,20.02
8080,3300.00,3300.00,1307.91,0.3582,0.9460,0.2502,-11.049,15.754,-40.363,-24.81,68.73,0.5361,-0.8652,0.1643,25.235,30.216,15.170,-16.82,-79.48,0.0000,0.0000,0.0000,0.000,0.000,0.000,0.00,0.00,21.66,41.32,19.66
8105,3300.00,3300.00,3300.00,0.2981,0.9485,0.2905,-13.110,14.929,-48.088,-24.29,68.50,0.4805,-0.8604,0.1772,38.502,27.758,19.537,-16.38,-78.52,0.0000,0.0000,0.0000,0.000,0.000,0.000,0.00,0.00,21.71,41.01,19.30
8119,3300.00,3300.00,3300.00,0.2986,0.9709,0.3030,-18.515,21.876,-46.790,-23.82,68.33,0.4597,-0.8354,0.1870,43.815,25.559,22.041,-16.26,-77.89,0.0000,0.0000,0.0000,0.000,0.000,0.000,0.00,0.00,21.73,40.69,18.96
8143,2254.80,2218.53,0.00,0.3057,0.9531,0.3477,-20.118,21.815,-44.653,-23.16,67.88,0.4543,-0.8765,0.1787,36.151,25.605,29.170,-15.86,-77.03,0.0000,0.0000,0.0000,0.000,0.000,0.000,0.00,0.00,21.74,40.35,18.61
8158,3300.00,3300.00,3259.71,0.2900,0.9343,0.3333,-19.126,21.341,-41.920,-22.72,67.66,0.4224,-0.8674,0.1858,39.678,27.514,26.285,-15.67,-76.50,0.0000,0.0000,0.0000,0.000,0.000,0.000,0.00,0.00,21.72,39.99,18.27
8182,3300.00,3300.00,3300.00,0.2876,0.9463,0.3015,-33.431,41.219,-42.210,-21.60,66.95,0.4395,-0.8562,0.1890,52.655,29.758,24.041,-15.18,-75.26,0.0000,0.0000,0.0000,0.000,0.000,0.000,0.00,0.00,21.67,39.59,17.92
8196,3300.00,3300.00,543.15,0.3152,0.9668,0.3208,-30.271,38.563,-45.447,-20.98,66.62,0.4380,-0.8340,0.1687,40.838,27.834,30.102,-15.03,-74.75,0.0000,0.0000,0.0000,0.000,0.000,0.000,0.00,0.00,21.58,39.17,17.59
8221,3300.00,3300.00,3300.00,0.3364,0.9685,0.3071,-37.843,39.173,-46.103,-19.98,65.83,0.4741,-0.9011,0.1851,29.296,24.613,37.613,-14.68,-74.12,0.0000,0.0000,0.0000,0.000,0.000,0.000,0.00,0.00,21.46,38.71,17.25
8235,3300.00,3300.00,3300.00,0.3184,0.9514,0.2766,-37.355,41.586,-48.454,-19.36,65.47,0.4893,-0.8896,0.2009,35.937,26.888,36.163,-14.58,-73.68,0.0000,0.0000,0.0000,0.000,0.000,0.000,0.00,0.00,21.30,38.23,16.93
8259,1217.66,606.01,0.00,0.2852,0.9504,0.2976,-21.981,30.395,-59.569,-18.56,65.08,0.4836,-0.8684,0.2200,47.036,32.185,40.208,-14.08,-72.60,0.0000,0.0000,0.0000,0.000,0.000,0.000,0.00,0.00,21.14,37.74,16.60
8274,3300.00,3300.00,2591.65,0.2710,0.9514,0.3228,-22.790,27.296,-64.515,-18.11,64.89,0.4705,-0.8525,0.2246,49.159,36.140,45.048,-13.86,-71.96,0.0000,0.0000,0.0000,0.000,0.000,0.000,0.00,0.00,20.97,37.25,16.27
8298,3300.00,3300.00,3300.00,0.2183,0.9639,0.3220,-40.546,29.845,-69.401,-17.27,64.05,0.4556,-0.8811,0.2705,50.487,44.567,47.842,-13.04,-70.77,0.0000,0.0000,0.0000,0.000,0.000,0.000,0.00,0.00,20.82,36.73,15.92
8312,3300.00,0.00,0.00,0.2244,0.9463,0.3171,-32.423,29.815,-74.943,-16.77,63.74,0.4465,-0.8726,0.2695,45.739,50.124,48.789,-12.60,-70.17,0.0000,0.0000,0.0000,0.000,0.000,0.000,0.00,0.00,20.66,36.22,15.55
8337,3300.00,3300.00,3300.00,0.2297,0.9890,0.3303,-13.217,24.212,-77.767,-16.10,63.58,0.4253,-0.8425,0.2898,49.922,45.392,40.483,-11.77,-68.99,0.0000,0.0000,0.0000,0.000,0.000,0.000,0.00,0.00,20.54,35.69,15.15
8351,3300.00,3300.00,3300.00,0.2043,1.0000,0.3359,-14.011,24.929,-79.599,-15.65,63.54,0.4316,-0.8423,0.2710,52.090,47.392,40.208,-11.39,-68.33,0.0000,0.0000,0.0000,0.000,0.000,0.000,0.00,0.00,20.41,35.17,14.76
8376,237.73,1361.90,0.00,0.2207,1.0022,0.3474,-26.423,23.204,-77.019,-15.01,63.06,0.4004,-0.8889,0.2776,45.876,50.338,35.613,-10.42,-67.32,0.0000,0.0000,0.0000,0.000,0.000,0.000,0.00,0.00,20.32,34.64,14.32
8390,3300.00,3300.00,1872.01,0.2153,0.9971,0.3491,-24.225,21.021,-71.203,-14.65,62.87,0.4089,-0.8801,0.2625,44.838,46.781,34.972,-10.04,-66.81,0.0000,0.0000,0.0000,0.000,0.000,0.000,0.00,0.00,20.23,34.12,13.89
8415,1981.61,3300.00,0.00,0.1982,1.0269,0.3298,-22.805,23.189,-70.042,-14.00,62.50,0.4114,-0.8994,0.2964,28.471,45.330,40.132,-9.20,-66.22,0.0000,0.0000,0.0000,0.000,0.000,0.000,0.00,0.00,20.17,33.60,13.43
8429,0.00,2119.41,0.00,0.1968,1.0237,0.3237,-26.561,26.578,-68.653,-13.56,62.33,0.4163,-0.8755,0.3047,28.960,45.422,41.918,-8.87,-65.90,0.0000,0.0000,0.0000,0.000,0.000,0.000,0.00,0.00,20.10,33.07,12.98
8443,0.00,91.06,0.00,0.1602,0.9790,0.3303,-40.408,29.357,-67.111,-13.05,61.94,0.4165,-0.8652,0.3318,36.991,46.094,39.659,-8.53,-65.45,0.0000,0.0000,0.0000,0.000,0.000,0.000,0.00,0.00,20.02,32.55,12.53
8468,3300.00,3300.00,3300.00,0.1108,1.0320,0.3682,-34.958,24.288,-72.867,-12.32,61.27,0.4124,-0.8489,0.3398,38.120,51.697,38.987,-7.60,-64.59,0.0000,0.0000,0.0000,0.000,0.000,0.000,0.00,0.00,19.96,32.02,12.06
8482,1311.14,3300.00,0.00,0.1292,1.0718,0.3486,-32.057,12.960,-75.203,-12.03,61.04,0.4028,-0.8496,0.3442,38.487,47.193,40.331,-7.26,-64.12,0.0000,0.0000,0.0000,0.000,0.000,0.000,0.00,0.00,19.91,31.50,11.59
8507,2114.58,3300.00,0.00,0.1687,1.0264,0.3965,-47.309,9.005,-63.554,-11.74,60.06,0.3623,-0.9170,0.3384,27.281,44.598,46.911,-6.46,-63.57,0.0000,0.0000,0.0000,0.000,0.000,0.000,0.00,0.00,19.91,31.00,11.10
8521,3300.00,3300.00,2126.67,0.1841,0.9661,0.4001,-64.286,25.158,-60.653,-11.36,59.31,0.3574,-0.9150,0.3020,27.204,44.857,46.361,-6.11,-63.36,0.0000,0.0000,0.0000,0.000,0.000,0.000,0.00,0.00,19.89,30.51,10.61
8545,0.00,0.00,0.00,0.1611,1.0002,0.3896,-39.752,21.769,-71.691,-10.78,58.55,0.3645,-0.9163,0.3396,43.006,42.918,47.491,-5.37,-62.45,0.0000,0.0000,0.0000,0.000,0.000,0.000,0.00,0.00,19.89,30.01,10.11
8560,0.00,0.00,0.00,0.1328,1.0388,0.4211,-28.118,19.311,-74.821,-10.43,58.34,0.3567,-0.8818,0.3564,45.937,37.895,47.384,-5.14,-61.92,0.0000,0.0000,0.0000,0.000,0.000,0.000,0.00,0.00,19.89,29.52,9.63
8574,0.00,0.00,0.00,0.1152,1.0381,0.4167,-35.278,16.792,-72.515,-10.10,58.04,0.3540,-0.9036,0.3472,36.807,41.300,51.231,-4.86,-61.55,0.0000,0.0000,0.0000,0.000,0.000,0.000,0.00,0.00,19.88,29.04,9.17
8598,0.00,0.00,0.00,0.1099,0.9905,0.3975,-47.859,23.265,-66.806,-9.46,57.10,0.3374,-0.9221,0.3447,40.700,39.956,50.758,-4.19,-60.73,0.0000,0.0000,0.0000,0.000,0.000,0.000,0.00,0.00,19.87,28.55,8.69
8612,0.00,0.00,0.00,0.0825,0.9744,0.4277,-48.713,29.036,-67.935,-8.96,56.61,0.3162,-0.8779,0.3650,38.991,39.987,50.865,-3.92,-60.33,0.0000,0.0000,0.0000,0.000,0.000,0.000,0.00,0.00,19.84,28.06,8.22
8627,0.00,0.00,0.00,0.0608,1.0010,0.4229,-44.332,28.563,-68.561,-8.44,56.20,0.2927,-0.8804,0.3743,43.876,38.369,50.407,-3.64,-59.84,0.0000,0.0000,0.0000,0.000,0.000,0.000,0.00,0.00,19.81,27.57,7.77
8651,0.00,0.00,0.00,0.0403,1.0137,0.4426,-48.988,30.425,-67.752,-7.59,55.23,0.2617,-0.8535,0.4026,48.975,39.956,53.079,-2.92,-58.77,0.0000,0.0000,0.0000,0.000,0.000,0.000,0.00,0.00,19.76,27.06,7.30
8665,0.00,0.00,0.00,0.0171,0.9863,0.4456,-57.202,25.693,-66.699,-7.10,54.64,0.2544,-0.8486,0.4253,36.105,42.017,59.262,-2.58,-58.36,0.0000,0.0000,0.0000,0.000,0.000,0.000,0.00,0.00,19.71,26.54,6.83
8679,0.00,0.00,0.00,-0.0029,0.9792,0.4514,-57.462,24.593,-65.844,-6.61,54.05,0.2437,-0.8940,0.4402,37.861,41.804,59.262,-2.22,-57.94,0.0000,0.0000,0.0000,0.000,0.000,0.000,0.00,0.00,19.65,26.03,6.38
8704,0.00,0.00,0.00,-0.0046,0.9788,0.4385,-53.126,32.578,-67.340,-5.69,53.02,0.2402,-0.8711,0.4387,37.708,45.040,57.170,-1.37,-57.15,0.0000,0.0000,0.0000,0.000,0.000,0.000,0.00,0.00,19.59,25.49,5.90
8718,0.00,0.00,0.00,-0.0212,1.0076,0.4438,-56.057,38.120,-66.867,-5.03,52.51,0.2527,-0.8918,0.4458,40.578,46.628,57.567,-0.98,-56.71,0.0000,0.0000,0.0000,0.000,0.000,0.000,0.00,0.00,19.52,24.94,5.42
8732,0.00,0.00,0.00,-0.0173,0.9561,0.4399,-58.118,38.334,-65.966,-4.37,51.95,0.2522,-0.8787,0.4373,41.693,48.460,58.224,-0.57,-56.26,0.0000,0.0000,0.0000,0.000,0.000,0.000,0.00,0.00,19.43,24.38,4.95
8757,0.00,0.00,0.00,-0.0437,0.9758,0.4983,-44.515,31.647,-71.935,-3.48,51.10,0.2075,-0.8379,0.4558,41.372,53.819,58.850,0.48,-55.37,0.0000,0.0000,0.0000,0.000,0.000,0.000,0.00,0.00,19.36,23.80,4.43
8771,0.00,0.00,0.00,-0.0640,0.9978,0.5276,-45.233,23.601,-70.699,-3.01,50.69,0.1838,-0.8210,0.4797,34.166,51.040,60.880,0.97,-54.98,0.0000,0.0000,0.0000,0.000,0.000,0.000,0.00,0.00,19.30,23.22,3.92
8785,0.00,0.00,0.00,-0.0889,1.0281,0.5244,-76.194,20.502,-60.592,-2.58,49.87,0.1868,-0.8787,0.4824,30.242,43.788,63.033,1.35,-54.69,0.0000,0.0000,0.0000,0.000,0.000,0.000,0.00,0.00,19.24,22.66,3.42
8810,0.00,0.00,0.00,-0.0864,0.9785,0.5647,-52.607,10.380,-63.401,-2.19,48.82,0.1628,-0.9280,0.5215,38.059,40.964,57.583,2.13,-53.90,0.0000,0.0000,0.0000,0.000,0.000,0.000,0.00,0.00,19.21,22.11,2.90
8824,0.00,0.00,0.00,-0.1206,0.9712,0.5854,-27.019,-1.620,-57.523,-2.05,48.64,0.1206,-0.8386,0.5291,26.960,37.361,51.659,2.47,-53.59,0.0000,0.0000,0.0000,0.000,0.000,0.000,0.00,0.00,19.19,21.59,2.39
8838,0.00,0.00,0.00,-0.1941,1.0037,0.5544,-43.416,-0.949,-41.966,-1.83,48.27,0.1523,-0.8235,0.5374,12.517,33.819,44.834,2.72,-53.48,0.0000,0.0000,0.0000,0.000,0.000,0.000,0.00,0.00,19.18,21.09,1.90
8863,0.00,0.00,0.00,-0.1392,0.9397,0.5413,-22.011,-8.613,-46.409,-1.85,47.98,0.1433,-0.9937,0.5410,20.349,41.163,37.292,3.51,-53.15,0.0000,0.0000,0.0000,0.000,0.000,0.000,0.00,0.00,19.23,20.62,1.39
8877,0.00,0.00,0.00,-0.1321,0.9084,0.5356,-15.095,-13.712,-48.042,-1.86,48.00,0.0576,-0.9136,0.5762,45.662,37.651,24.773,3.90,-52.61,0.0000,0.0000,0.0000,0.000,0.000,0.000,0.00,0.00,19.30,20.19,0.89
8891,0.00,0.00,0.00,-0.1919,0.9385,0.5874,2.645,-10.231,-45.859,-1.77,48.24,0.0173,-0.7917,0.5664,45.891,32.017,17.002,4.25,-52.01,0.0000,0.0000,0.0000,0.000,0.000,0.000,0.00,0.00,19.39,19.78,0.40
8916,0.00,0.00,0.00,-0.1919,0.9749,0.6104,-8.988,-14.506,-34.882,-1.90,48.22,0.0825,-0.8147,0.4785,20.594,26.918,18.697,4.71,-51.66,0.0000,0.0000,0.0000,0.000,0.000,0.000,0.00,0.00,19.51,19.41,-0.09
8930,0.00,0.00,0.00,-0.1555,0.9504,0.6350,-41.141,-15.956,-26.485,-1.93,47.81,0.0784,-0.8860,0.4780,20.197,29.712,18.392,4.94,-51.58,0.0000,0.0000,0.0000,0.000,0.000,0.000,0.00,0.00,19.64,19.07,-0.56
8944,0.00,0.00,0.00,-0.1064,0.9529,0.5710,-57.874,-12.506,-24.989,-1.95,47.22,0.0508,-0.9236,0.5012,31.265,33.468,14.437,5.25,-51.34,0.0000,0.0000,0.0000,0.000,0.000,0.000,0.00,0.00,19.78,18.76,-1.03
8969,0.00,0.00,0.00,-0.1938,0.8799,0.6121,-39.019,-7.972,-21.767,-1.90,46.45,-0.0134,-0.8389,0.5317,21.464,28.766,15.735,5.85,-50.96,0.0000,0.0000,0.0000,0.000,0.000,0.000,0.00,0.00,19.95,18.46,-1.50
8983,0.00,0.00,0.00,-0.1826,0.8938,0.6096,-29.492,-4.002,-21.477,-1.73,46.22,-0.0247,-0.8118,0.5005,19.555,25.392,13.537,6.12,-50.83,0.0000,0.0000,0.0000,0.000,0.000,0.000,0.00,0.00,20.12,18.17,-1.95
8997,0.00,0.00,0.00,-0.1787,0.9124,0.6311,-14.958,-0.796,-22.195,-1.52,46.20,0.0244,-0.8389,0.5125,7.021,21.743,16.483,6.27,-50.89,0.0000,0.0000,0.0000,0.000,0.000,0.000,0.00,0.00,20.27,17.88,-2.39
9022,0.00,0.00,0.00,-0.1345,0.8965,0.6140,-11.065,-4.460,-25.203,-1.45,46.12,0.0554,-0.9011,0.5173,28.105,20.598,9.949,6.58,-50.40,0.0000,0.0000,0.0000,0.000,0.000,0.000,0.00,0.00,20.43,17.62,-2.81
9036,0.00,0.00,0.00,-0.1274,0.9456,0.5957,-23.645,-1.300,-22.821,-1.31,46.02,0.0513,-0.8528,0.5261,41.159,17.727,4.972,6.63,-49.99,0.0000,0.0000,0.0000,0.000,0.000,0.000,0.00,0.00,20.57,17.36,-3.21
9050,0.00,0.00,0.00,-0.1443,0.9319,0.5852,-25.004,1.967,-20.180,-1.11,45.91,0.0703,-0.8455,0.5132,38.395,15.514,8.743,6.64,-49.63,0.0000,0.0000,0.0000,0.000,0.000,0.000,0.00,0.00,20.69,17.10,-3.58
9074,0.00,0.00,0.00,-0.1682,0.9417,0.6040,-21.217,4.761,-15.111,-0.80,45.63,0.0630,-0.8030,0.5398,1.479,13.468,17.186,6.75,-49.72,0.0000,0.0000,0.0000,0.000,0.000,0.000,0.00,0.00,20.78,16.84,-3.94
9088,0.00,0.00,0.00,-0.1680,0.9236,0.6011,-21.401,4.303,-13.355,-0.55,45.56,0.0730,-0.8125,0.5420,-19.666,12.659,23.231,6.71,-50.13,0.0000,0.0000,0.0000,0.000,0.000,0.000,0.00,0.00,20.85,16.58,-4.26
9103,0.00,0.00,0.00,-0.1763,0.9160,0.5913,-11.156,2.990,-17.218,-0.32,45.64,0.0796,-0.8564,0.5422,-20.078,11.193,22.071,6.64,-50.56,0.0000,0.0000,0.0000,0.000,0.000,0.000,0.00,0.00,20.89,16.33,-4.56
9127,0.00,0.00,0.00,-0.1421,0.9038,0.5676,-13.095,2.853,-18.027,-0.09,45.57,0.0730,-0.8999,0.5554,25.204,7.437,7.323,6.60,-50.11,0.0000,0.0000,0.0000,0.000,0.000,0.000,0.00,0.00,20.91,16.07,-4.84
9141,0.00,0.00,0.00,-0.1404,0.9250,0.5632,-13.019,4.212,-18.531,0.12,45.65,0.0762,-0.8508,0.5508,34.151,7.101,5.247,6.48,-49.77,0.0000,0.0000,0.0000,0.000,0.000,0.000,0.00,0.00,20.91,15.82,-5.09
9156,0.00,0.00,0.00,-0.1587,0.9497,0.5710,0.859,3.586,-21.462,0.33,45.93,0.0796,-0.8059,0.5439,24.762,7.178,8.071,6.36,-49.55,0.0000,0.0000,0.0000,0.000,0.000,0.000,0.00,0.00,20.88,15.57,-5.31
9180,0.00,0.00,0.00,-0.1655,0.9719,0.6045,-6.011,-0.384,-16.057,0.48,46.03,0.0715,-0.8000,0.5347,0.868,8.613,17.552,6.36,-49.67,0.0000,0.0000,0.0000,0.000,0.000,0.000,0.00,0.00,20.84,15.33,-5.51
9194,0.00,0.00,0.00,-0.1709,0.9622,0.5920,-8.423,-3.254,-13.279,0.59,46.16,0.0786,-0.8291,0.5481,-1.361,9.529,18.697,6.27,-49.82,0.0000,0.0000,0.0000,0.000,0.000,0.000,0.00,0.00,20.80,15.10,-5.70
9208,0.00,0.00,0.00,-0.1711,0.9287,0.5828,-13.920,-1.926,-9.615,0.73,46.20,0.0508,-0.8591,0.5481,8.914,7.636,14.544,6.19,-49.85,0.0000,0.0000,0.0000,0.000,0.000,0.000,0.00,0.00,20.74,14.87,-5.87
9233,0.00,0.00,0.00,-0.1543,0.8872,0.6045,-17.523,4.227,-6.653,0.98,45.97,0.0288,-0.8730,0.5474,20.304,6.308,10.911,6.19,-49.53,0.0000,0.0000,0.0000,0.000,0.000,0.000,0.00,0.00,20.67,14.64,-6.02
9247,0.00,0.00,0.00,-0.1643,0.9009,0.5955,-15.767,5.067,-7.767,1.21,45.96,0.0195,-0.8267,0.5474,11.907,0.979,11.323,6.06,-49.50,0.0000,0.0000,0.0000,0.000,0.000,0.000,0.00,0.00,20.57,14.42,-6.16
9261,0.00,0.00,0.00,-0.1880,0.9238,0.6199,-11.523,5.769,-7.248,1.46,46.00,0.0298,-0.8088,0.5593,4.349,-0.288,12.819,5.90,-49.55,0.0000,0.0000,0.0000,0.000,0.000,0.000,0.00,0.00,20.46,14.19,-6.27
9286,0.00,0.00,0.00,-0.2073,0.9187,0.6272,-14.011,4.196,-4.790,1.74,45.86,0.0356,-0.8184,0.5454,-2.475,-0.242,14.392,5.73,-49.75,0.0000,0.0000,0.0000,0.000,0.000,0.000,0.00,0.00,20.32,13.96,-6.36
9300,0.00,0.00,0.00,-0.2036,0.8904,0.6152,-4.332,3.845,-6.851,1.97,45.99,0.0327,-0.8401,0.5437,2.975,2.079,12.544,5.61,-49.85,0.0000,0.0000,0.0000,0.000,0.000,0.000,0.00,0.00,20.17,13.72,-6.44
9314,0.00,0.00,0.00,-0.1904,0.8813,0.6201,-1.614,2.838,-7.599,2.17,46.15,0.0293,-0.8499,0.5525,8.227,4.094,9.186,5.52,-49.88,0.0000,0.0000,0.0000,0.000,0.000,0.000,0.00,0.00,20.00,13.49,-6.51
9339,0.00,0.00,0.00,-0.1750,0.8992,0.6174,-20.088,4.166,-6.836,2.41,45.85,0.0371,-0.8420,0.5569,8.762,4.475,8.224,5.48,-49.80,0.0000,0.0000,0.0000,0.000,0.000,0.000,0.00,0.00,19.83,13.26,-6.57
9353,0.00,0.00,0.00,-0.1750,0.9028,0.6074,-19.965,4.349,-9.004,2.60,45.78,0.0422,-0.8289,0.5508,6.471,3.727,9.216,5.37,-49.85,0.0000,0.0000,0.0000,0.000,0.000,0.000,0.00,0.00,19.65,13.03,-6.62
9367,0.00,0.00,0.00,-0.1814,0.9143,0.6233,-12.530,4.410,-11.477,2.80,45.80,0.0381,-0.8301,0.5500,6.502,3.651,9.155,5.27,-49.89,0.0000,0.0000,0.0000,0.000,0.000,0.000,0.00,0.00,19.46,12.81,-6.66
9392,0.00,0.00,0.00,-0.1970,0.9097,0.6094,4.248,3.509,-11.050,3.03,46.11,0.0237,-0.8271,0.5569,7.189,4.216,8.667,5.24,-49.84,0.0000,0.0000,0.0000,0.000,0.000,0.000,0.00,0.00,19.27,12.58,-6.69
9406,0.00,0.00,0.00,-0.2068,0.9043,0.6125,4.676,3.402,-8.699,3.23,46.37,0.0203,-0.8245,0.5588,2.777,5.880,8.743,5.19,-49.92,0.0000,0.0000,0.0000,0.000,0.000,0.000,0.00,0.00,19.07,12.35,-6.72
9420,0.00,0.00,0.00,-0.2007,0.8987,0.6218,-4.698,5.525,-7.294,3.45,46.49,0.0237,-0.8210,0.5603,4.639,6.750,7.079,5.15,-49.97,0.0000,0.0000,0.0000,0.000,0.000,0.000,0.00,0.00,18.87,12.13,-6.74
9445,0.00,0.00,0.00,-0.1909,0.9199,0.6072,-16.973,7.128,-4.042,3.75,46.28,0.0325,-0.8228,0.5481,1.189,6.903,6.041,5.18,-50.07,0.0000,0.0000,0.0000,0.000,0.000,0.000,0.00,0.00,18.66,11.90,-6.76
9459,0.00,0.00,0.00,-0.1929,0.9268,0.6042,-17.065,9.250,-4.210,4.00,46.26,0.0371,-0.8208,0.5610,-1.116,6.659,6.483,5.12,-50.20,0.0000,0.0000,0.0000,0.000,0.000,0.000,0.00,0.00,18.45,11.67,-6.78
9473,0.00,0.00,0.00,-0.1958,0.9241,0.6055,-14.729,8.318,-3.599,4.24,46.26,0.0352,-0.8159,0.5520,-3.055,5.987,6.483,5.06,-50.35,0.0000,0.0000,0.0000,0.000,0.000,0.000,0.00,0.00,18.23,11.44,-6.79
9497,0.00,0.00,0.00,-0.1855,0.9214,0.6284,-7.614,3.418,-2.119,4.43,46.27,0.0427,-0.8228,0.5552,-4.887,4.888,8.728,5.03,-50.58,0.0000,0.0000,0.0000,0.000,0.000,0.000,0.00,0.00,18.01,11.21,-6.80
9512,0.00,0.00,0.00,-0.1768,0.9155,0.6362,-12.042,0.746,-0.958,4.53,46.28,0.0442,-0.8315,0.5571,-6.872,5.590,8.880,4.96,-50.79,0.0000,0.0000,0.0000,0.000,0.000,0.000,0.00,0.00,17.80,10.99,-6.81
9526,0.00,0.00,0.00,-0.1831,0.9041,0.6401,-14.576,-0.155,-1.615,4.62,46.24,0.0352,-0.8369,0.5459,-5.162,5.758,8.178,4.90,-50.99,0.0000,0.0000,0.0000,0.000,0.000,0.000,0.00,0.00,17.58,10.78,-6.81
9550,0.00,0.00,0.00,-0.1731,0.8989,0.6267,-15.782,-1.300,-2.302,4.68,46.04,0.0330,-0.8489,0.5422,-2.078,5.743,5.949,4.90,-51.16,0.0000,0.0000,0.0000,0.000,0.000,0.000,0.00,0.00,17.38,10.58,-6.80
9565,0.00,0.00,0.00,-0.1824,0.8887,0.6252,-13.339,-2.307,-2.790,4.74,46.03,0.0271,-0.8584,0.5469,-3.620,6.155,5.552,4.86,-51.34,0.0000,0.0000,0.0000,0.000,0.000,0.000,0.00,0.00,17.19,10.39,-6.80
9579,0.00,0.00,0.00,-0.1785,0.8833,0.6326,-8.729,-2.033,-4.500,4.81,46.08,0.0225,-0.8469,0.5542,-4.032,6.079,4.560,4.82,-51.51,0.0000,0.0000,0.0000,0.000,0.000,0.000,0.00,0.00,17.00,10.21,-6.79
9603,0.00,0.00,0.00,-0.1882,0.8923,0.6404,-1.324,-4.491,-6.943,4.80,46.21,0.0176,-0.8450,0.5474,-3.681,5.056,3.750,4.82,-51.71,0.0000,0.0000,0.0000,0.000,0.000,0.000,0.00,0.00,16.83,10.04,-6.79
9617,0.00,0.00,0.00,-0.1892,0.8904,0.6416,-1.981,-4.827,-6.775,4.83,46.35,0.0144,-0.8457,0.5479,-1.116,5.468,2.529,4.79,-51.83,0.0000,0.0000,0.0000,0.000,0.000,0.000,0.00,0.00,16.66,9.88,-6.78
9632,0.00,0.00,0.00,-0.1992,0.8904,0.6470,-1.614,-5.086,-5.462,4.87,46.48,0.0042,-0.8386,0.5452,1.540,5.743,2.025,4.77,-51.91,0.0000,0.0000,0.0000,0.000,0.000,0.000,0.00,0.00,16.50,9.73,-6.77
9656,0.00,0.00,0.00,-0.1892,0.8923,0.6331,-0.301,-4.903,-6.317,4.85,46.63,0.0103,-0.8384,0.5505,1.540,7.956,1.750,4.85,-51.97,0.0000,0.0000,0.0000,0.000,0.000,0.000,0.00,0.00,16.36,9.59,-6.77
9670,0.00,0.00,0.00,-0.1985,0.8777,0.6301,-3.859,-2.918,-6.393,4.92,46.73,0.0027,-0.8284,0.5364,-2.063,8.170,2.636,4.86,-52.10,0.0000,0.0000,0.0000,0.000,0.000,0.000,0.00,0.00,16.23,9.46,-6.77
9684,0.00,0.00,0.00,-0.2007,0.8865,0.6353,-7.965,-2.124,-7.065,5.00,46.77,0.0051,-0.8245,0.5483,-5.177,7.773,2.392,4.87,-52.26,0.0000,0.0000,0.0000,0.000,0.000,0.000,0.00,0.00,16.10,9.33,-6.77
9709,0.00,0.00,0.00,-0.1982,0.8955,0.6519,-4.271,-2.002,-8.409,5.06,46.82,0.0085,-0.8367,0.5430,-4.780,9.651,3.063,4.99,-52.47,0.0000,0.0000,0.0000,0.000,0.000,0.000,0.00,0.00,15.98,9.20,-6.78
9723,0.00,0.00,0.00,-0.1982,0.8918,0.6609,-6.133,-4.384,-5.615,5.10,46.86,-0.0049,-0.8406,0.5417,-5.941,10.460,2.743,5.04,-52.64,0.0000,0.0000,0.0000,0.000,0.000,0.000,0.00,0.00,15.87,9.08,-6.79
9737,0.00,63.66,0.00,-0.1990,0.8865,0.6572,-6.652,-3.147,-4.042,5.15,46.90,-0.0088,-0.8452,0.5459,-5.620,9.819,2.041,5.09,-52.81,0.0000,0.0000,0.0000,0.000,0.000,0.000,0.00,0.00,15.77,8.97,-6.80
9762,0.00,0.00,0.00,-0.1965,0.8879,0.6443,-3.248,-0.903,-4.928,5.23,46.97,-0.0037,-0.8386,0.5439,-4.948,9.911,2.743,5.23,-53.02,0.0000,0.0000,0.0000,0.000,0.000,0.000,0.00,0.00,15.68,8.86,-6.82
9776,0.00,35.46,0.00,-0.1963,0.8899,0.6462,-6.652,-1.941,-4.180,5.30,47.02,-0.0032,-0.8403,0.5425,-4.796,8.872,3.140,5.25,-53.17,0.0000,0.0000,0.0000,0.000,0.000,0.000,0.00,0.00,15.59,8.75,-6.85
9790,0.00,3300.00,0.00,-0.2004,0.8928,0.6455,-3.233,-1.620,-3.386,5.38,47.11,0.0000,-0.8425,0.5383,-4.399,8.995,3.384,5.27,-53.31,0.0000,0.0000,0.0000,0.000,0.000,0.000,0.00,0.00,15.51,8.64,-6.87
9814,0.00,0.00,0.00,-0.2021,0.8901,0.6338,0.798,-1.620,-3.722,5.44,47.28,0.0027,-0.8442,0.5498,-2.490,8.491,1.247,5.37,-53.44,0.0000,0.0000,0.0000,0.000,0.000,0.000,0.00,0.00,15.43,8.54,-6.90
9829,0.00,0.00,0.00,-0.1980,0.8926,0.6414,0.065,-3.086,-3.615,5.50,47.42,0.0095,-0.8423,0.5566,-0.353,7.926,0.712,5.36,-53.51,0.0000,0.0000,0.0000,0.000,0.000,0.000,0.00,0.00,15.36,8.44,-6.92
9843,0.00,1007.33,0.00,-0.1980,0.8899,0.6462,-0.637,-4.781,-3.798,5.53,47.54,0.0137,-0.8423,0.5513,0.609,8.353,-0.601,5.35,-53.57,0.0000,0.0000,0.0000,0.000,0.000,0.000,0.00,0.00,15.28,8.34,-6.94
9867,0.00,2079.93,0.00,-0.1892,0.8940,0.6443,1.134,-7.147,-4.821,5.44,47.71,0.0076,-0.8379,0.5469,2.578,6.888,-0.906,5.40,-53.57,0.0000,0.0000,0.0000,0.000,0.000,0.000,0.00,0.00,15.23,8.26,-6.97
9881,0.00,0.00,0.00,-0.1909,0.8923,0.6379,2.523,-8.155,-4.378,5.41,47.88,0.0010,-0.8411,0.5403,4.334,6.414,-1.395,5.38,-53.59,0.0000,0.0000,0.0000,0.000,0.000,0.000,0.00,0.00,15.17,8.18,-6.99
9896,0.00,0.00,0.00,-0.1902,0.8882,0.6406,0.767,-8.033,-3.401,5.39,48.01,0.0015,-0.8455,0.5391,3.815,6.292,-1.135,5.36,-53.61,0.0000,0.0000,0.0000,0.000,0.000,0.000,0.00,0.00,15.12,8.11,-7.01
9920,0.00,3300.00,0.00,-0.1802,0.8906,0.6421,-0.515,-4.827,-2.271,5.35,48.12,0.0034,-0.8489,0.5359,3.586,8.369,0.392,5.45,-53.61,0.0000,0.0000,0.0000,0.000,0.000,0.000,0.00,0.00,15.08,8.05,-7.03
9934,0.00,442.42,0.00,-0.1836,0.9019,0.6448,-1.446,-3.849,-1.218,5.38,48.23,0.0012,-0.8357,0.5361,3.204,7.605,0.239,5.45,-53.64,0.0000,0.0000,0.0000,0.000,0.000,0.000,0.00,0.00,15.05,7.99,-7.05
9949,0.00,0.00,0.00,-0.1843,0.8960,0.6431,-0.729,-1.880,-1.248,5.44,48.34,0.0044,-0.8364,0.5396,3.311,6.017,0.789,5.41,-53.66,0.0000,0.0000,0.0000,0.000,0.000,0.000,0.00,0.00,15.01,7.94,-7.07
9973,0.00,3300.00,0.00,-0.1885,0.8911,0.6472,1.180,-0.888,-2.363,5.50,48.48,-0.0037,-0.8408,0.5361,-0.002,3.590,2.850,5.40,-53.74,0.0000,0.0000,0.0000,0.000,0.000,0.000,0.00,0.00,14.96,7.88,-7.09
9987,0.00,3300.00,0.00,-0.1938,0.8835,0.6567,2.783,-1.224,-1.981,5.57,48.62,-0.0024,-0.8457,0.5479,1.143,3.956,2.728,5.35,-53.79,0.0000,0.0000,0.0000,0.000,0.000,0.000,0.00,0.00,14.91,7.82,-7.10
10001,0.00,1672.16,0.00,-0.1965,0.8740,0.6577,1.912,-0.170,-2.607,5.66,48.73,-0.0149,-0.8457,0.5464,0.533,3.086,1.552,5.30,-53.85,0.0000,0.0000,0.0000,0.000,0.000,0.000,0.00,0.00,14.86,7.76,-7.10
10026,0.00,775.24,0.00,-0.1938,0.8777,0.6526,3.531,-0.140,-2.973,5.75,48.91,-0.0144,-0.8467,0.5369,0.563,2.231,1.613,5.26,-53.91,0.0000,0.0000,0.0000,0.000,0.000,0.000,0.00,0.00,14.80,7.69,-7.11
10040,0.00,3300.00,748.64,-0.1936,0.8936,0.6489,4.645,-0.094,-2.897,5.83,49.08,-0.0137,-0.8425,0.5400,0.197,2.766,1.140,5.21,-53.98,0.0000,0.0000,0.0000,0.000,0.000,0.000,0.00,0.00,14.73,7.63,-7.11
10054,0.00,3300.00,3300.00,-0.1958,0.8918,0.6467,5.989,-0.048,-1.767,5.91,49.26,-0.0093,-0.8372,0.5386,-0.231,0.613,0.300,5.13,-54.04,0.0000,0.0000,0.0000,0.000,0.000,0.000,0.00,0.00,14.66,7.56,-7.10
10079,0.00,0.00,0.00,-0.2002,0.8853,0.6497,7.516,1.357,-3.157,6.04,49.53,-0.0095,-0.8384,0.5376,-2.383,0.781,-0.143,5.05,-54.17,0.0000,0.0000,0.0000,0.000,0.000,0.000,0.00,0.00,14.58,7.49,-7.09
10093,0.00,3300.00,0.00,-0.2029,0.8896,0.6531,3.195,0.273,-2.363,6.13,49.66,-0.0122,-0.8381,0.5415,-1.971,0.216,-1.425,4.97,-54.25,0.0000,0.0000,0.0000,0.000,0.000,0.000,0.00,0.00,14.49,7.42,-7.07
10107,0.00,3300.00,3300.00,-0.2063,0.8889,0.6602,-2.347,-1.559,-1.325,6.19,49.70,-0.0176,-0.8467,0.5464,0.685,-0.318,-2.173,4.89,-54.30,0.0000,0.0000,0.0000,0.000,0.000,0.000,0.00,0.00,14.40,7.35,-7.05
10132,0.00,3300.00,1085.49,-0.2063,0.8821,0.6409,-0.118,-1.025,-1.080,6.26,49.78,-0.0142,-0.8462,0.5342,2.670,0.399,-3.272,4.81,-54.31,0.0000,0.0000,0.0000,0.000,0.000,0.000,0.00,0.00,14.31,7.28,-7.03
10146,0.00,3300.00,0.00,-0.2036,0.8870,0.6445,2.584,0.227,-1.096,6.35,49.90,-0.0181,-0.8330,0.5464,-0.368,1.559,-1.501,4.76,-54.36,0.0000,0.0000,0.0000,0.000,0.000,0.000,0.00,0.00,14.21,7.21,-7.00
10160,0.00,3300.00,0.00,-0.2048,0.8867,0.6467,3.668,-0.536,-0.607,6.42,50.04,-0.0073,-0.8303,0.5396,-2.521,1.407,-1.959,4.69,-54.45,0.0000,0.0000,0.0000,0.000,0.000,0.000,0.00,0.00,14.11,7.13,-6.97
10184,0.00,3300.00,3300.00,-0.2051,0.8899,0.6453,7.485,-3.514,-0.286,6.42,50.30,-0.0024,-0.8416,0.5591,-0.292,1.178,-4.143,4.63,-54.49,0.0000,0.0000,0.0000,0.000,0.000,0.000,0.00,0.00,14.01,7.07,-6.94
10199,0.00,3300.00,0.00,-0.2100,0.8811,0.6487,7.821,-5.956,0.477,6.43,50.47,-0.0056,-0.8416,0.5552,2.075,0.308,-5.990,4.55,-54.51,0.0000,0.0000,0.0000,0.000,0.000,0.000,0.00,0.00,13.91,7.00,-6.91
10213,0.00,3300.00,0.00,-0.2100,0.8872,0.6428,6.004,-9.529,0.431,6.39,50.63,-0.0068,-0.8352,0.5493,2.410,0.048,-7.059,4.47,-54.52,0.0000,0.0000,0.0000,0.000,0.000,0.000,0.00,0.00,13.82,6.95,-6.87
10237,0.00,3300.00,3300.00,-0.2080,0.9009,0.6343,9.531,-9.651,0.080,6.24,50.94,-0.0056,-0.8323,0.5493,0.395,0.903,-8.295,4.41,-54.55,0.0000,0.0000,0.0000,0.000,0.000,0.000,0.00,0.00,13.74,6.91,-6.83
10251,0.00,3300.00,3300.00,-0.2039,0.8970,0.6428,10.416,-8.979,0.553,6.20,51.15,-0.0037,-0.8384,0.5454,-0.612,1.422,-7.669,4.34,-54.61,0.0000,0.0000,0.0000,0.000,0.000,0.000,0.00,0.00,13.66,6.87,-6.79
10266,0.00,3300.00,3300.00,-0.1978,0.8938,0.6321,10.538,-7.437,1.576,6.18,51.37,-0.0073,-0.8408,0.5476,-1.971,2.002,-7.288,4.29,-54.68,0.0000,0.0000,0.0000,0.000,0.000,0.000,0.00,0.00,13.59,6.84,-6.74
10290,0.00,3300.00,3300.00,-0.1921,0.8953,0.6326,5.943,-1.926,3.103,6.21,51.58,-0.0085,-0.8416,0.5471,-3.101,0.598,-5.929,4.23,-54.80,0.0000,0.0000,0.0000,0.000,0.000,0.000,0.00,0.00,13.51,6.81,-6.70
10304,3300.00,3300.00,3300.00,-0.1851,0.8936,0.6321,4.584,2.242,3.118,6.30,51.71,-0.0010,-0.8477,0.5381,-1.620,-1.097,-6.082,4.13,-54.88,0.0000,0.0000,0.0000,0.000,0.000,0.000,0.00,0.00,13.43,6.77,-6.65
10319,1938.90,3300.00,3300.00,-0.1755,0.8950,0.6343,1.378,2.151,2.920,6.39,51.79,-0.0029,-0.8440,0.5266,-2.506,-1.280,-5.227,4.03,-54.98,0.0000,0.0000,0.0000,0.000,0.000,0.000,0.00,0.00,13.34,6.73,-6.60
10343,0.00,3300.00,3300.00,-0.1782,0.9028,0.6375,8.722,0.303,3.057,6.45,52.06,0.0017,-0.8381,0.5403,-3.116,-6.135,-2.814,3.80,-55.10,0.0000,0.0000,0.0000,0.000,0.000,0.000,0.00,0.00,13.23,6.69,-6.54
10357,963.81,3300.00,3300.00,-0.1890,0.9006,0.6394,9.974,0.609,3.439,6.53,52.25,-0.0020,-0.8396,0.5398,-2.246,-8.456,-1.730,3.61,-55.17,0.0000,0.0000,0.0000,0.000,0.000,0.000,0.00,0.00,13.12,6.65,-6.47
10372,3300.00,3300.00,3300.00,-0.1953,0.8828,0.6357,8.172,0.547,6.401,6.61,52.40,-0.0029,-0.8413,0.5417,-1.727,-7.555,-2.509,3.44,-55.24,0.0000,0.0000,0.0000,0.000,0.000,0.000,0.00,0.00,12.99,6.60,-6.39
10396,0.00,3300.00,3300.00,-0.2068,0.8770,0.6372,9.119,3.860,4.462,6.78,52.65,-0.0093,-0.8472,0.5518,-1.101,-6.700,-3.669,3.22,-55.30,0.0000,0.0000,0.0000,0.000,0.000,0.000,0.00,0.00,12.85,6.55,-6.30
10410,631.79,3300.00,3300.00,-0.2073,0.8831,0.6240,8.416,5.876,2.538,6.95,52.81,-0.0012,-0.8562,0.5483,0.792,-4.105,-5.288,3.10,-55.33,0.0000,0.0000,0.0000,0.000,0.000,0.000,0.00,0.00,12.69,6.49,-6.21
10425,3300.00,3300.00,3300.00,-0.2068,0.9023,0.6265,8.966,5.494,2.126,7.10,52.99,-0.0034,-0.8367,0.5371,1.876,-1.738,-5.440,3.01,-55.34,0.0000,0.0000,0.0000,0.000,0.000,0.000,0.00,0.00,12.53,6.42,-6.11
10449,1792.23,3300.00,3300.00,-0.2004,0.9189,0.6257,8.630,1.097,3.408,7.19,53.25,0.0088,-0.8235,0.5479,4.471,-4.227,-5.211,2.84,-55.25,0.0000,0.0000,0.0000,0.000,0.000,0.000,0.00,0.00,12.36,6.35,-6.02
10464,0.00,3300.00,3300.00,-0.1990,0.9177,0.6343,3.073,0.105,5.393,7.25,53.33,0.0068,-0.8276,0.5515,3.540,-6.105,-5.379,2.69,-55.22,0.0000,0.0000,0.0000,0.000,0.000,0.000,0.00,0.00,12.19,6.28,-5.92
10478,0.00,3300.00,3300.00,-0.1921,0.9106,0.6191,5.836,-0.338,5.668,7.30,53.46,0.0000,-0.8296,0.5486,1.250,-6.761,-4.326,2.54,-55.23,0.0000,0.0000,0.0000,0.000,0.000,0.000,0.00,0.00,12.02,6.21,-5.81
10502,3300.00,3300.00,3300.00,-0.1982,0.9031,0.5930,4.370,6.441,7.622,7.51,53.63,0.0068,-0.8274,0.5500,-4.277,-9.265,-3.211,2.26,-55.36,0.0000,0.0000,0.0000,0.000,0.000,0.000,0.00,0.00,11.83,6.13,-5.70
10517,824.40,3300.00,3300.00,-0.1995,0.9077,0.6116,3.851,7.815,8.797,7.68,53.74,0.0125,-0.8298,0.5615,-4.139,-9.402,-2.631,2.07,-55.43,0.0000,0.0000,0.0000,0.000,0.000,0.000,0.00,0.00,11.62,6.05,-5.58
10531,0.00,3300.00,3300.00,-0.1982,0.9092,0.6260,0.386,6.181,10.721,7.82,53.78,0.0132,-0.8440,0.5554,-1.513,-7.555,-4.387,1.91,-55.47,0.0000,0.0000,0.0000,0.000,0.000,0.000,0.00,0.00,11.41,5.96,-5.45
10555,3300.00,3300.00,3300.00,-0.2002,0.9067,0.6067,9.470,6.609,8.095,8.03,54.05,0.0227,-0.8457,0.5464,-0.109,-9.357,-5.196,1.62,-55.51,0.0000,0.0000,0.0000,0.000,0.000,0.000,0.00,0.00,11.18,5.86,-5.32
10570,3300.00,3300.00,3300.00,-0.1860,0.9036,0.6133,19.760,5.357,6.416,8.13,54.36,0.0354,-0.8445,0.5393,-3.300,-6.135,-4.204,1.46,-55.59,0.0000,0.0000,0.0000,0.000,0.000,0.000,0.00,0.00,10.94,5.76,-5.18
10584,3300.00,3300.00,3300.00,-0.1760,0.8962,0.6123,27.607,1.265,5.194,8.17,54.78,0.0454,-0.8442,0.5503,-5.376,-5.265,-4.585,1.31,-55.69,0.0000,0.0000,0.0000,0.000,0.000,0.000,0.00,0.00,10.71,5.67,-5.04
10608,0.00,3300.00,3300.00,-0.1760,0.9080,0.6018,27.012,1.464,3.347,8.23,55.46,0.0039,-0.8445,0.5337,-1.116,-6.792,-6.952,1.11,-55.76,0.0000,0.0000,0.0000,0.000,0.000,0.000,0.00,0.00,10.48,5.58,-4.90
10623,3300.00,3300.00,3300.00,-0.1860,0.9160,0.6167,22.722,5.906,4.401,8.34,55.79,-0.0007,-0.8425,0.5483,6.044,-4.929,-9.257,1.02,-55.70,0.0000,0.0000,0.0000,0.000,0.000,0.000,0.00,0.00,10.25,5.49,-4.76
10637,3300.00,910.62,3300.00,-0.1953,0.9209,0.6167,17.653,6.151,6.828,8.46,56.04,-0.0051,-0.8335,0.5466,5.632,-6.929,-11.242,0.91,-55.64,0.0000,0.0000,0.0000,0.000,0.000,0.000,0.00,0.00,10.01,5.39,-4.62
10661,0.00,0.00,3300.00,-0.2039,0.9143,0.6086,16.538,9.036,7.622,8.71,56.45,0.0063,-0.8191,0.5342,5.846,-10.486,-10.463,0.64,-55.53,0.0000,0.0000,0.0000,0.000,0.000,0.000,0.00,0.00,9.76,5.29,-4.48
