timestamp_ms,EMG_Quad_mV,EMG_Ham_mV,EMG_Calf_mV,ACC_Quad_X_g,ACC_Quad_Y_g,ACC_Quad_Z_g,GYR_Quad_X_dps,GYR_Quad_Y_dps,GYR_Quad_Z_dps,Pitch_Quad_deg,Roll_Quad_deg,ACC_Ham_X_g,ACC_Ham_Y_g,ACC_Ham_Z_g,GYR_Ham_X_dps,GYR_Ham_Y_dps,GYR_Ham_Z_dps,Pitch_Ham_deg,Roll_Ham_deg,ACC_Calf_X_g,ACC_Calf_Y_g,ACC_Calf_Z_g,GYR_Calf_X_dps,GYR_Calf_Y_dps,GYR_Calf_Z_dps,Pitch_Calf_deg,Roll_Calf_deg,Angle_Quad_Ham_deg,Angle_Quad_Calf_deg,Angle_Ham_Calf_deg
6,1420.73,1303.08,1387.69,0.0488,0.0315,1.1926,0.330,-0.008,-0.035,-2.09,1.82,0.1829,-0.6064,0.7930,-1.254,-0.007,1.065,-10.93,-37.70,0.8826,0.1481,0.4293,-5.171,-3.185,-1.298,-62.35,17.10,0.03,-0.22,-0.25
21,979.93,928.35,1041.98,0.0410,0.0447,1.2014,0.528,0.053,0.087,-2.09,1.84,0.1921,-0.6086,0.7837,0.043,-0.191,0.576,-10.93,-37.70,0.9113,0.1273,0.4114,-6.026,-1.628,-2.901,-62.42,17.01,0.06,-0.42,-0.48
35,741.39,805.05,921.10,0.0435,0.0337,1.1970,-0.770,-0.115,-0.173,-2.09,1.82,0.1877,-0.6042,0.7815,0.532,0.069,0.668,-10.93,-37.70,0.8792,0.1327,0.4104,-3.935,0.845,-4.443,-62.44,16.97,0.09,-0.62,-0.70
60,2341.03,2250.77,2149.23,0.0447,0.0439,1.2036,0.513,0.037,-0.050,-2.09,1.84,0.1938,-0.6084,0.7844,-0.628,-0.267,0.912,-10.94,-37.71,0.8953,0.1361,0.4281,-2.408,3.105,-7.848,-62.38,16.93,0.11,-0.79,-0.90
75,2104.10,1926.81,1908.28,0.0454,0.0337,1.1855,-0.434,-0.039,-0.050,-2.09,1.83,0.1897,-0.6042,0.7810,-0.125,0.023,0.714,-10.94,-37.72,0.8844,0.1506,0.4437,-3.431,3.639,-8.550,-62.32,16.92,0.13,-0.95,-1.09
89,1457.80,1328.06,1405.42,0.0481,0.0374,1.2026,-0.479,-0.131,0.133,-2.10,1.82,0.2014,-0.6094,0.7883,-0.445,-0.358,0.424,-10.95,-37.72,0.9135,0.1694,0.4435,-2.805,2.769,-8.397,-62.29,16.96,0.15,-1.10,-1.25
114,1410.26,1590.77,1531.14,0.0413,0.0447,1.2004,-0.021,0.114,0.133,-2.09,1.83,0.1895,-0.6074,0.7888,0.517,-0.313,0.607,-10.96,-37.71,0.9106,0.1907,0.4583,-2.973,0.250,-5.283,-62.26,17.00,0.17,-1.23,-1.40
129,2009.82,2086.37,1972.75,0.0466,0.0369,1.1921,-0.144,0.053,-0.112,-2.10,1.82,0.1973,-0.6055,0.7896,-0.125,0.039,0.927,-10.96,-37.70,0.8871,0.1809,0.4578,-5.599,0.418,-2.764,-62.23,17.01,0.19,-1.35,-1.54
143,2330.55,2249.16,2144.40,0.0420,0.0383,1.2017,-0.159,0.129,0.011,-2.09,1.82,0.1912,-0.6050,0.7859,-0.842,0.008,0.943,-10.96,-37.71,0.9113,0.1699,0.4598,-4.606,-2.162,-1.558,-62.25,17.01,0.20,-1.47,-1.67
168,729.30,819.56,903.37,0.0420,0.0386,1.2000,-0.113,0.007,-0.096,-2.09,1.82,0.1863,-0.6086,0.7791,0.043,0.008,0.759,-10.95,-37.72,0.9012,0.1415,0.4375,-5.141,-3.475,-1.787,-62.35,16.90,0.22,-1.58,-1.80
183,892.09,1108.06,1108.86,0.0461,0.0366,1.1958,-0.128,0.098,-0.112,-2.09,1.82,0.1924,-0.6033,0.7883,-0.293,-0.221,0.683,-10.96,-37.72,0.8853,0.1298,0.4160,-5.553,-2.773,-2.657,-62.42,16.83,0.23,-1.69,-1.93
197,1465.86,1664.91,1583.52,0.0420,0.0369,1.1968,0.116,0.083,0.056,-2.09,1.82,0.1897,-0.6072,0.7910,-0.354,0.069,0.714,-10.95,-37.72,0.9008,0.1293,0.4102,-4.102,-0.574,-5.085,-62.47,16.78,0.25,-1.80,-2.05
222,1275.68,1173.33,1255.53,0.0422,0.0403,1.1985,-0.052,0.053,-0.020,-2.09,1.82,0.1914,-0.6082,0.7947,0.059,-0.252,0.653,-10.96,-37.71,0.9071,0.1403,0.4136,-2.973,3.548,-7.451,-62.42,16.75,0.26,-1.90,-2.15
236,824.40,839.71,933.19,0.0439,0.0383,1.1990,0.070,-0.039,-0.005,-2.09,1.82,0.1899,-0.6072,0.7866,-0.766,0.176,1.111,-10.95,-37.72,0.8906,0.1534,0.4373,-2.957,4.555,-7.878,-62.36,16.76,0.27,-1.98,-2.25
251,722.05,863.08,915.46,0.0430,0.0381,1.1968,0.314,0.037,-0.020,-2.09,1.82,0.1895,-0.6064,0.7878,-0.079,-0.191,0.622,-10.95,-37.72,0.8988,0.1619,0.4564,-2.973,4.097,-8.153,-62.28,16.77,0.28,-2.06,-2.33
276,2304.76,2152.45,2062.20,0.0444,0.0369,1.1980,-0.266,-0.054,0.148,-2.09,1.82,0.1853,-0.6069,0.7910,-0.155,-0.221,0.805,-10.95,-37.72,0.9041,0.1805,0.4677,-4.194,0.128,-5.802,-62.26,16.76,0.29,-2.12,-2.41
290,1760.81,1585.93,1636.70,0.0400,0.0408,1.2043,0.024,0.022,-0.020,-2.08,1.82,0.1887,-0.6116,0.7886,-0.140,-0.114,0.561,-10.94,-37.72,0.9001,0.1823,0.4630,-5.110,-1.353,-3.955,-62.25,16.78,0.30,-2.19,-2.48
315,1116.12,1353.85,1316.78,0.0403,0.0437,1.2041,-0.006,-0.008,-0.020,-2.08,1.82,0.1897,-0.6050,0.7954,-0.064,-0.206,0.393,-10.95,-37.71,0.9008,0.1619,0.4371,-5.614,-2.895,-1.146,-62.33,16.72,0.30,-2.25,-2.55
329,1803.52,1932.45,1828.50,0.0413,0.0376,1.1982,-0.205,-0.115,-0.020,-2.08,1.82,0.1931,-0.6057,0.7930,-0.735,-0.099,0.988,-10.95,-37.72,0.8960,0.1427,0.4315,-5.446,-2.391,-0.917,-62.38,16.67,0.31,-2.31,-2.62
354,1018.61,963.81,1067.77,0.0427,0.0393,1.1941,0.162,0.129,-0.127,-2.08,1.83,0.1943,-0.6033,0.7883,0.059,-0.236,0.821,-10.96,-37.71,0.8925,0.1239,0.4178,-4.713,-0.147,-4.092,-62.41,16.55,0.32,-2.37,-2.69
369,747.84,788.94,888.86,0.0435,0.0435,1.2017,-0.006,0.037,0.011,-2.08,1.83,0.1926,-0.6062,0.7903,-0.186,-0.038,0.805,-10.96,-37.71,0.8912,0.1251,0.4224,-3.767,0.952,-6.520,-62.43,16.50,0.32,-2.43,-2.75
383,761.54,957.36,993.63,0.0425,0.0364,1.1858,-0.220,-0.069,-0.081,-2.08,1.83,0.1934,-0.6101,0.7861,-0.170,-0.160,0.698,-10.96,-37.71,0.8967,0.1400,0.4260,-3.492,2.616,-7.985,-62.41,16.48,0.33,-2.48,-2.81
408,2127.47,1959.85,1923.59,0.0444,0.0400,1.1975,-0.098,-0.069,0.026,-2.08,1.82,0.1899,-0.6052,0.7888,-0.186,-0.221,0.729,-10.96,-37.71,0.9031,0.1700,0.4437,-3.232,3.487,-7.909,-62.32,16.49,0.33,-2.52,-2.86
423,1467.47,1343.37,1400.59,0.0405,0.0374,1.1985,-0.067,-0.069,-0.173,-2.08,1.82,0.1951,-0.6033,0.7844,-0.262,-0.023,0.836,-10.97,-37.71,0.9016,0.1766,0.4554,-3.522,2.845,-6.382,-62.26,16.54,0.34,-2.56,-2.90
447,1346.59,1569.01,1502.12,0.0444,0.0403,1.2021,0.055,0.083,0.041,-2.08,1.83,0.1919,-0.6091,0.7917,0.074,-0.160,0.500,-10.97,-37.71,0.9055,0.1736,0.4728,-4.759,-0.819,-3.390,-62.26,16.49,0.34,-2.59,-2.93
462,2062.20,2132.31,2000.15,0.0425,0.0381,1.1973,-0.067,0.068,0.117,-2.07,1.83,0.1868,-0.6125,0.7852,-0.705,0.008,1.050,-10.96,-37.72,0.8964,0.1648,0.4624,-5.492,-2.712,-2.382,-62.28,16.48,0.34,-2.62,-2.97
476,2337.80,2256.41,2147.62,0.0457,0.0386,1.1990,0.116,0.022,-0.020,-2.08,1.83,0.1895,-0.6096,0.7866,-0.613,-0.175,0.668,-10.96,-37.73,0.9019,0.1560,0.4406,-5.553,-3.872,-2.153,-62.34,16.46,0.35,-2.66,-3.01
501,719.63,838.10,910.62,0.0435,0.0356,1.1907,-0.159,-0.039,0.056,-2.08,1.82,0.1909,-0.6069,0.7856,0.150,-0.068,0.530,-10.96,-37.73,0.8983,0.1410,0.4139,-4.851,-2.086,-2.993,-62.42,16.39,0.35,-2.69,-3.05
516,876.78,1095.97,1121.76,0.0432,0.0374,1.2004,0.070,0.022,-0.127,-2.08,1.82,0.1936,-0.6062,0.7888,-0.170,-0.114,0.759,-10.96,-37.73,0.8934,0.1344,0.4135,-4.606,0.662,-4.062,-62.45,16.36,0.35,-2.73,-3.08
530,1465.86,1654.43,1588.35,0.0415,0.0388,1.2021,0.085,0.053,0.041,-2.07,1.82,0.1904,-0.6025,0.7957,-0.079,0.023,0.653,-10.96,-37.72,0.8979,0.1321,0.4226,-3.629,2.250,-5.680,-62.44,16.32,0.36,-2.76,-3.12
555,1296.63,1172.53,1274.07,0.0417,0.0381,1.1968,-0.083,-0.054,-0.096,-2.07,1.82,0.1865,-0.6086,0.7920,-0.277,-0.038,0.561,-10.95,-37.72,0.8964,0.1434,0.4456,-3.095,3.380,-8.046,-62.36,16.28,0.36,-2.79,-3.15
570,853.41,838.90,942.05,0.0420,0.0383,1.1968,-0.128,0.022,0.011,-2.07,1.82,0.1929,-0.6047,0.7903,-0.231,-0.038,0.836,-10.95,-37.72,0.8956,0.1572,0.4543,-3.461,2.739,-8.275,-62.31,16.29,0.36,-2.81,-3.17
584,719.63,835.68,919.49,0.0457,0.0432,1.2041,0.162,0.068,0.072,-2.07,1.83,0.1936,-0.6077,0.7930,-0.125,-0.145,0.698,-10.96,-37.71,0.9037,0.1757,0.4620,-3.721,1.471,-7.512,-62.27,16.32,0.36,-2.83,-3.19
609,2294.29,2166.15,2100.88,0.0457,0.0354,1.1958,-0.083,0.022,0.041,-2.07,1.82,0.1909,-0.6062,0.7834,-0.491,-0.252,0.744,-10.96,-37.73,0.9015,0.1859,0.4576,-4.637,-0.544,-3.817,-62.26,16.33,0.37,-2.84,-3.21
624,1803.52,1639.93,1689.08,0.0430,0.0366,1.2012,-0.067,-0.024,-0.112,-2.07,1.82,0.1904,-0.6113,0.7900,0.120,-0.053,0.836,-10.96,-37.73,0.9014,0.1725,0.4487,-5.263,-1.567,-1.894,-62.28,16.35,0.37,-2.85,-3.22
648,1066.96,1315.97,1280.51,0.0420,0.0378,1.2000,0.085,0.083,0.087,-2.07,1.82,0.1929,-0.6057,0.7883,-0.155,-0.175,0.836,-10.96,-37.73,0.8920,0.1428,0.4395,-5.767,-2.513,-1.176,-62.34,16.24,0.37,-2.87,-3.24
663,1740.66,1889.74,1794.65,0.0447,0.0376,1.2002,-0.052,0.007,-0.035,-2.07,1.82,0.1929,-0.6089,0.7876,-0.216,-0.114,0.744,-10.96,-37.73,0.8925,0.1281,0.4333,-5.141,-2.361,-2.504,-62.39,16.17,0.37,-2.89,-3.26
687,1070.18,1006.52,1095.97,0.0486,0.0383,1.1978,0.146,0.053,-0.020,-2.08,1.82,0.1919,-0.6074,0.7930,-0.308,-0.084,0.637,-10.96,-37.73,0.8940,0.1315,0.4122,-4.087,-0.025,-6.016,-62.43,16.10,0.37,-2.91,-3.29
702,765.57,819.56,917.88,0.0500,0.0354,1.1958,-0.144,0.022,-0.035,-2.08,1.82,0.1902,-0.6062,0.7827,-0.262,-0.038,0.775,-10.96,-37.73,0.8997,0.1420,0.4193,-3.644,2.235,-7.466,-62.42,16.10,0.37,-2.93,-3.31
717,755.90,889.67,958.17,0.0454,0.0403,1.1960,-0.083,0.022,-0.035,-2.08,1.82,0.1917,-0.6042,0.7852,-0.018,-0.129,0.744,-10.96,-37.73,0.8998,0.1554,0.4292,-2.988,3.914,-8.062,-62.38,16.13,0.38,-2.95,-3.32
742,2259.63,2104.10,2050.92,0.0383,0.0410,1.1943,0.101,-0.024,-0.020,-2.08,1.83,0.1897,-0.6077,0.7898,-0.369,-0.068,0.729,-10.96,-37.74,0.8988,0.1726,0.4576,-3.202,3.502,-6.764,-62.28,16.15,0.38,-2.95,-3.33
756,1691.50,1553.70,1597.22,0.0447,0.0364,1.2021,0.024,0.144,0.117,-2.08,1.82,0.1924,-0.6074,0.7869,0.013,-0.191,0.622,-10.96,-37.74,0.9010,0.1752,0.4708,-4.270,0.861,-5.161,-62.24,16.17,0.38,-2.96,-3.33
771,1144.32,1071.79,1165.27,0.0442,0.0332,1.1970,-0.067,0.037,0.011,-2.08,1.82,0.1895,-0.6030,0.7935,0.089,-0.129,0.546,-10.96,-37.72,0.9008,0.1730,0.4700,-5.064,-1.353,-3.665,-62.23,16.18,0.38,-2.96,-3.34
796,1776.92,1928.42,1828.50,0.0435,0.0410,1.2026,-0.037,-0.100,0.041,-2.08,1.82,0.1875,-0.6113,0.7847,-0.628,-0.129,0.821,-10.96,-37.74,0.9026,0.1580,0.4392,-5.446,-3.475,-2.153,-62.32,16.12,0.38,-2.97,-3.35
810,2312.82,2278.17,2146.01,0.0435,0.0376,1.2019,-0.128,-0.100,-0.005,-2.08,1.82,0.1960,-0.6101,0.7869,-0.308,-0.206,0.698,-10.97,-37.75,0.8983,0.1484,0.4253,-5.538,-2.849,-2.031,-62.38,16.10,0.38,-2.98,-3.36
835,751.06,811.50,903.37,0.0444,0.0352,1.2009,0.085,0.068,0.041,-2.08,1.82,0.1943,-0.6069,0.7839,-0.048,-0.084,0.561,-10.97,-37.75,0.8959,0.1315,0.4147,-4.606,0.372,-3.894,-62.41,16.02,0.38,-2.99,-3.38
850,803.44,981.54,1021.83,0.0439,0.0415,1.1934,-0.083,0.098,-0.005,-2.08,1.82,0.1902,-0.6040,0.7878,0.196,-0.007,0.683,-10.97,-37.74,0.8926,0.1318,0.4226,-3.522,2.326,-5.817,-62.40,16.00,0.38,-3.01,-3.39
864,1256.34,1462.64,1431.21,0.0417,0.0403,1.2007,0.146,0.022,0.072,-2.08,1.82,0.1904,-0.6033,0.7815,-0.338,-0.099,0.698,-10.97,-37.75,0.8937,0.1385,0.4352,-3.583,3.090,-7.207,-62.37,15.98,0.38,-3.01,-3.40
889,1447.33,1343.37,1388.50,0.0449,0.0388,1.1958,-0.083,0.098,-0.035,-2.08,1.82,0.1904,-0.6042,0.7822,-0.186,-0.053,0.714,-10.97,-37.75,0.8983,0.1631,0.4523,-3.690,2.647,-7.772,-62.29,15.97,0.38,-3.02,-3.40
903,951.72,900.15,1019.41,0.0413,0.0413,1.1975,0.146,0.007,-0.173,-2.07,1.83,0.1853,-0.6101,0.7896,0.104,-0.160,0.561,-10.96,-37.75,0.9031,0.1758,0.4583,-3.873,1.609,-6.749,-62.25,16.01,0.38,-3.02,-3.40
918,722.05,821.17,881.61,0.0425,0.0349,1.1936,-0.113,0.007,0.011,-2.07,1.82,0.1902,-0.6067,0.7913,-0.094,-0.038,0.698,-10.96,-37.74,0.9023,0.1814,0.4563,-4.545,0.204,-4.733,-62.23,16.06,0.38,-3.02,-3.40
943,2341.03,2235.46,2129.89,0.0481,0.0349,1.1987,0.055,0.098,-0.081,-2.08,1.82,0.1907,-0.6111,0.7908,-0.644,-0.038,0.821,-10.96,-37.76,0.9025,0.1661,0.4553,-5.186,-1.796,-2.306,-62.27,16.01,0.38,-3.02,-3.40
957,2027.55,1830.11,1844.62,0.0469,0.0361,1.2000,0.024,0.022,0.133,-2.08,1.82,0.1907,-0.6084,0.7776,-0.445,0.008,0.805,-10.96,-37.77,0.8975,0.1571,0.4432,-5.171,-2.254,-2.107,-62.30,16.01,0.39,-3.02,-3.41
972,1382.05,1252.31,1340.95,0.0432,0.0356,1.1938,0.024,-0.008,-0.112,-2.08,1.82,0.1909,-0.6052,0.7903,0.196,-0.191,0.775,-10.96,-37.76,0.8938,0.1416,0.4362,-5.171,-2.284,-2.688,-62.34,15.98,0.39,-3.03,-3.41
997,1516.63,1693.11,1613.33,0.0376,0.0330,1.2056,-0.113,-0.100,0.102,-2.08,1.81,0.1885,-0.6006,0.7939,-0.079,-0.343,0.744,-10.96,-37.75,0.8905,0.1370,0.4181,-4.698,-0.422,-4.260,-62.38,15.90,0.39,-3.04,-3.42
1011,2141.17,2179.05,2050.11,0.0427,0.0391,1.1995,-0.327,-0.039,-0.050,-2.07,1.81,0.1858,-0.6038,0.7852,-0.735,-0.267,0.866,-10.96,-37.75,0.8995,0.1367,0.4211,-4.225,1.059,-5.619,-62.40,15.89,0.39,-3.04,-3.43
1036,850.18,838.10,949.30,0.0415,0.0449,1.1992,0.375,0.022,-0.005,-2.07,1.82,0.1929,-0.6104,0.7891,0.089,0.023,0.576,-10.96,-37.75,0.8953,0.1459,0.4287,-3.431,2.510,-7.008,-62.35,15.86,0.39,-3.05,-3.44
1051,724.47,852.60,929.16,0.0459,0.0432,1.1995,-0.083,-0.069,-0.127,-2.08,1.83,0.1938,-0.6091,0.7869,0.746,-0.038,0.393,-10.96,-37.74,0.8992,0.1566,0.4382,-3.431,2.830,-7.283,-62.32,15.89,0.39,-3.05,-3.44
1065,966.23,1178.97,1174.14,0.0510,0.0366,1.1975,-0.434,-0.131,-0.218,-2.08,1.82,0.1975,-0.6057,0.7881,-0.033,-0.191,0.622,-10.97,-37.74,0.8994,0.1674,0.4532,-3.370,2.296,-7.222,-62.27,15.93,0.39,-3.05,-3.44
1090,1784.18,1626.23,1663.30,0.0432,0.0403,1.2017,0.452,0.190,0.148,-2.08,1.83,0.1914,-0.6084,0.7830,-0.995,-0.068,0.943,-10.97,-37.76,0.9001,0.1797,0.4596,-4.255,0.540,-5.314,-62.24,15.93,0.39,-3.05,-3.44
1105,1210.40,1115.31,1200.73,0.0444,0.0393,1.1980,-0.281,0.083,0.087,-2.08,1.83,0.1963,-0.6047,0.7837,0.898,-0.023,0.683,-10.97,-37.75,0.9008,0.1764,0.4550,-4.957,-0.620,-3.329,-62.23,15.97,0.39,-3.04,-3.43
1119,820.37,813.92,937.22,0.0439,0.0396,1.1960,-0.037,-0.069,0.072,-2.08,1.83,0.1926,-0.6074,0.7915,0.700,-0.023,0.668,-10.97,-37.73,0.8993,0.1671,0.4517,-5.217,-1.811,-2.077,-62.25,15.98,0.39,-3.04,-3.43
1144,2259.63,2235.46,2123.44,0.0449,0.0405,1.2004,0.146,0.114,0.041,-2.08,1.83,0.1882,-0.6055,0.7820,-1.117,-0.038,0.988,-10.97,-37.76,0.8945,0.1412,0.4375,-5.354,-2.422,-1.833,-62.32,15.89,0.39,-3.04,-3.43
1159,2268.50,2101.69,2060.59,0.0439,0.0386,1.1990,-0.205,-0.054,-0.142,-2.08,1.83,0.1931,-0.6101,0.7822,-0.613,0.008,0.836,-10.97,-37.77,0.8937,0.1304,0.4255,-5.141,-1.658,-3.054,-62.37,15.84,0.39,-3.05,-3.44
1183,763.15,920.29,984.76,0.0439,0.0410,1.1982,0.177,0.037,0.026,-2.08,1.84,0.1951,-0.6064,0.8000,0.776,-0.084,0.515,-10.97,-37.74,0.8972,0.1340,0.4166,-3.919,0.876,-6.230,-62.38,15.78,0.39,-3.06,-3.44
1198,1145.13,1379.63,1343.37,0.0452,0.0378,1.1958,-0.006,0.083,0.087,-2.08,1.84,0.1904,-0.6064,0.7913,-0.109,-0.038,0.637,-10.97,-37.74,0.8965,0.1455,0.4208,-3.324,2.525,-7.420,-62.37,15.80,0.39,-3.06,-3.45
1212,1802.71,1929.23,1836.56,0.0461,0.0366,1.1924,-0.159,-0.039,-0.050,-2.08,1.83,0.1914,-0.6047,0.7827,-1.422,-0.160,1.095,-10.97,-37.76,0.8979,0.1602,0.4355,-3.247,3.792,-7.741,-62.32,15.84,0.39,-3.06,-3.45
1237,1069.38,985.57,1091.14,0.0425,0.0388,1.1980,0.024,-0.069,-0.035,-2.08,1.84,0.1880,-0.6069,0.7844,0.654,-0.099,0.500,-10.97,-37.74,0.8977,0.1716,0.4655,-3.705,2.647,-6.428,-62.23,15.84,0.39,-3.06,-3.45
1252,747.84,798.61,897.73,0.0432,0.0332,1.1963,-0.174,0.022,-0.127,-2.08,1.83,0.1877,-0.6021,0.7922,0.501,-0.099,0.576,-10.97,-37.72,0.9023,0.1727,0.4661,-4.286,0.555,-4.978,-62.20,15.87,0.39,-3.05,-3.44
1266,783.30,950.11,1004.91,0.0420,0.0371,1.2046,0.116,-0.069,-0.005,-2.08,1.83,0.1956,-0.6030,0.7856,-0.674,-0.023,0.821,-10.97,-37.73,0.9006,0.1698,0.4604,-5.125,-1.536,-3.710,-62.21,15.88,0.39,-3.04,-3.43
1291,2133.11,1950.99,1938.10,0.0444,0.0425,1.1975,-0.052,0.053,0.117,-2.08,1.83,0.1912,-0.6096,0.7869,-0.506,-0.206,0.637,-10.97,-37.74,0.8979,0.1567,0.4366,-5.415,-2.925,-2.413,-62.29,15.83,0.39,-3.05,-3.43
1306,1469.89,1340.15,1424.76,0.0439,0.0396,1.1956,-0.174,0.037,-0.005,-2.08,1.83,0.1963,-0.6025,0.7859,0.303,-0.068,0.653,-10.98,-37.73,0.9003,0.1483,0.4302,-5.080,-2.177,-2.413,-62.34,15.82,0.39,-3.05,-3.44
1330,1362.71,1560.15,1507.77,0.0432,0.0388,1.2014,0.040,0.022,0.056,-2.08,1.83,0.1887,-0.6038,0.7844,-0.140,-0.099,0.683,-10.98,-37.73,0.8947,0.1366,0.4222,-4.347,0.708,-4.107,-62.35,15.76,0.39,-3.05,-3.44
1345,2011.43,2102.49,1967.91,0.0427,0.0369,1.1973,-0.189,0.144,0.072,-2.08,1.83,0.1909,-0.6074,0.7864,-1.056,0.008,0.943,-10.98,-37.75,0.8934,0.1364,0.4313,-3.843,1.792,-5.726,-62.34,15.74,0.39,-3.06,-3.44
1360,2342.64,2265.27,2144.40,0.0444,0.0396,1.2000,0.101,-0.024,0.011,-2.08,1.83,0.1858,-0.6099,0.7861,-0.522,-0.099,0.790,-10.97,-37.76,0.8953,0.1395,0.4380,-3.644,2.357,-7.023,-62.31,15.72,0.39,-3.06,-3.44
1384,721.25,824.40,897.73,0.0413,0.0391,1.2029,-0.083,0.114,-0.050,-2.07,1.83,0.1909,-0.6077,0.7915,0.562,-0.114,0.622,-10.97,-37.74,0.8999,0.1637,0.4445,-3.751,1.884,-7.176,-62.26,15.72,0.39,-3.06,-3.44
1399,884.03,1081.47,1095.97,0.0442,0.0320,1.1987,-0.037,-0.024,-0.050,-2.08,1.82,0.1904,-0.6104,0.7866,-0.705,-0.084,0.836,-10.97,-37.75,0.9011,0.1737,0.4487,-3.858,1.059,-6.062,-62.24,15.78,0.39,-3.05,-3.44
1413,1473.11,1659.27,1589.96,0.0427,0.0369,1.2039,0.131,0.190,0.102,-2.07,1.82,0.1936,-0.6147,0.7815,-1.239,-0.129,1.126,-10.97,-37.78,0.9015,0.1775,0.4447,-4.454,0.555,-4.520,-62.23,15.83,0.39,-3.05,-3.44
1438,1305.49,1185.42,1267.62,0.0405,0.0371,1.1985,-0.205,0.068,-0.050,-2.07,1.82,0.1924,-0.6099,0.7859,0.685,0.054,0.607,-10.97,-37.76,0.9037,0.1620,0.4485,-5.003,-0.910,-2.718,-62.25,15.79,0.39,-3.05,-3.43
1453,838.90,840.51,946.08,0.0474,0.0388,1.2031,-0.021,0.129,-0.066,-2.07,1.82,0.1919,-0.6074,0.7925,0.685,0.023,0.607,-10.97,-37.74,0.8992,0.1505,0.4425,-5.003,-1.674,-2.703,-62.28,15.78,0.39,-3.05,-3.43
1467,722.86,838.10,915.46,0.0410,0.0376,1.1963,0.208,0.129,0.117,-2.07,1.82,0.1912,-0.6067,0.7861,-0.842,-0.068,1.095,-10.97,-37.75,0.8949,0.1432,0.4365,-5.049,-1.460,-3.161,-62.31,15.76,0.39,-3.05,-3.44
1492,2323.30,2181.47,2092.82,0.0400,0.0342,1.1948,-0.296,0.007,-0.066,-2.06,1.81,0.1904,-0.6077,0.7844,-0.170,-0.236,0.668,-10.97,-37.76,0.8977,0.1387,0.4221,-4.606,-0.238,-4.657,-62.35,15.69,0.38,-3.06,-3.44
1507,1881.69,1706.81,1739.85,0.0425,0.0349,1.1995,-0.006,-0.008,0.041,-2.06,1.81,0.1924,-0.6047,0.7866,0.868,-0.038,0.378,-10.97,-37.74,0.8994,0.1436,0.4236,-3.980,0.968,-5.543,-62.36,15.70,0.38,-3.06,-3.44
1532,1016.19,1233.77,1220.88,0.0405,0.0371,1.1958,0.253,-0.069,0.026,-2.06,1.81,0.1946,-0.6052,0.7849,-0.644,-0.053,0.775,-10.97,-37.76,0.8989,0.1459,0.4358,-3.446,2.540,-6.413,-62.31,15.67,0.38,-3.06,-3.44
1546,1661.69,1822.86,1740.66,0.0420,0.0374,1.1968,-0.403,-0.054,0.072,-2.06,1.81,0.1909,-0.6072,0.7910,-1.010,-0.252,0.943,-10.98,-37.77,0.8979,0.1565,0.4480,-3.385,2.464,-6.596,-62.27,15.69,0.38,-3.06,-3.44
1571,1137.88,1032.31,1147.55,0.0417,0.0413,1.2078,0.253,0.053,-0.066,-2.06,1.81,0.1904,-0.6062,0.7800,0.440,-0.038,0.561,-10.97,-37.76,0.8965,0.1656,0.4619,-4.255,0.708,-5.680,-62.23,15.67,0.38,-3.06,-3.44
1585,760.73,784.91,902.56,0.0439,0.0354,1.1963,-0.418,-0.039,0.041,-2.06,1.81,0.1909,-0.6074,0.7866,0.227,-0.099,0.668,-10.97,-37.75,0.9037,0.1700,0.4498,-4.698,-0.590,-4.733,-62.23,15.70,0.38,-3.06,-3.43
1600,758.32,903.37,950.92,0.0452,0.0361,1.1953,-0.144,0.053,-0.005,-2.06,1.80,0.1941,-0.6069,0.7849,-1.071,-0.053,1.019,-10.98,-37.77,0.9000,0.1689,0.4440,-5.064,-1.429,-3.878,-62.25,15.73,0.38,-3.05,-3.43
1625,2208.06,2036.41,1982.42,0.0393,0.0396,1.1931,0.162,0.190,0.041,-2.05,1.81,0.1938,-0.6079,0.7844,-0.094,-0.053,0.851,-10.98,-37.77,0.8977,0.1539,0.4293,-5.018,-1.322,-2.718,-62.30,15.69,0.38,-3.06,-3.43
1639,1591.58,1452.16,1498.10,0.0430,0.0381,1.2048,-0.083,-0.039,-0.020,-2.05,1.81,0.1853,-0.6060,0.7849,0.975,0.054,0.500,-10.97,-37.75,0.8986,0.1443,0.4313,-4.789,-0.773,-2.810,-62.33,15.68,0.37,-3.06,-3.44
1664,1277.29,1502.93,1441.69,0.0398,0.0369,1.2017,0.192,0.114,0.087,-2.05,1.81,0.1948,-0.6079,0.7871,-0.796,0.069,0.897,-10.97,-37.77,0.8940,0.1316,0.4294,-4.347,0.540,-4.672,-62.34,15.60,0.37,-3.07,-3.44
1678,1972.75,2052.53,1942.12,0.0444,0.0386,1.2048,0.131,0.053,0.041,-2.05,1.81,0.1914,-0.6116,0.7769,-1.056,-0.129,0.851,-10.97,-37.79,0.8953,0.1344,0.4288,-3.904,0.845,-5.955,-62.34,15.58,0.37,-3.07,-3.44
1693,2342.64,2257.22,2155.68,0.0454,0.0413,1.2012,-0.113,-0.054,-0.081,-2.05,1.81,0.1953,-0.6104,0.7854,0.089,-0.129,0.576,-10.98,-37.79,0.8971,0.1464,0.4321,-3.904,1.655,-7.069,-62.33,15.59,0.37,-3.07,-3.44
1718,719.63,798.61,905.79,0.0483,0.0378,1.1956,0.238,0.114,0.056,-2.05,1.82,0.1926,-0.6082,0.7898,0.349,-0.023,0.714,-10.98,-37.78,0.9016,0.1670,0.4446,-3.538,2.113,-6.856,-62.28,15.60,0.37,-3.07,-3.44
1732,842.12,1048.42,1083.88,0.0413,0.0435,1.2019,0.085,0.068,-0.035,-2.05,1.83,0.1897,-0.6069,0.7935,-0.857,0.023,0.805,-10.97,-37.79,0.9030,0.1722,0.4497,-3.919,1.609,-5.573,-62.25,15.65,0.37,-3.07,-3.44
1747,1353.85,1564.98,1504.54,0.0471,0.0398,1.2009,-0.235,0.083,0.041,-2.05,1.82,0.1895,-0.6062,0.7881,-0.934,-0.129,0.897,-10.97,-37.80,0.9025,0.1736,0.4554,-4.362,0.739,-4.291,-62.23,15.70,0.37,-3.07,-3.44
1772,1336.92,1226.52,1314.36,0.0444,0.0415,1.2007,0.375,-0.024,0.026,-2.06,1.84,0.1924,-0.6099,0.7869,0.746,-0.053,0.469,-10.97,-37.78,0.8976,0.1555,0.4535,-4.957,-1.506,-2.856,-62.26,15.64,0.37,-3.07,-3.43
1786,846.96,850.18,979.93,0.0442,0.0381,1.1985,-0.235,0.022,-0.066,-2.06,1.83,0.1887,-0.6016,0.7834,0.303,-0.206,0.546,-10.97,-37.77,0.8958,0.1456,0.4425,-5.171,-2.238,-3.008,-62.30,15.62,0.37,-3.07,-3.43
1801,713.99,812.31,914.65,0.0435,0.0408,1.2007,0.040,-0.039,0.056,-2.06,1.84,0.1914,-0.6084,0.7896,-1.209,0.054,0.988,-10.97,-37.78,0.8965,0.1449,0.4298,-4.957,-2.025,-3.497,-62.34,15.61,0.37,-3.07,-3.44
1825,2347.47,2184.69,2117.80,0.0444,0.0400,1.1929,0.024,-0.008,-0.035,-2.06,1.84,0.1892,-0.6057,0.7878,-0.323,-0.068,0.790,-10.97,-37.79,0.8993,0.1426,0.4187,-4.225,0.510,-4.962,-62.36,15.57,0.37,-3.08,-3.44
1840,1909.89,1740.66,1752.75,0.0425,0.0374,1.2014,-0.174,-0.039,0.026,-2.06,1.83,0.1931,-0.6077,0.7878,1.081,-0.160,0.347,-10.97,-37.77,0.8984,0.1440,0.4227,-3.675,1.777,-5.817,-62.36,15.58,0.37,-3.08,-3.45
1865,972.67,1199.12,1219.27,0.0437,0.0388,1.2009,0.284,0.007,0.056,-2.06,1.84,0.1863,-0.6072,0.7920,-0.903,-0.007,0.836,-10.96,-37.78,0.8984,0.1509,0.4431,-3.614,2.510,-6.596,-62.30,15.56,0.37,-3.08,-3.45
1879,1647.99,1812.38,1714.87,0.0427,0.0374,1.2056,-0.144,0.098,-0.081,-2.06,1.84,0.1904,-0.6096,0.7898,-0.934,-0.129,0.943,-10.96,-37.79,0.9001,0.1604,0.4545,-3.751,1.960,-6.489,-62.26,15.58,0.37,-3.08,-3.45
1894,2238.68,2230.62,2132.31,0.0435,0.0356,1.2058,-0.021,0.053,-0.005,-2.06,1.84,0.1904,-0.6077,0.7815,0.227,0.023,0.698,-10.96,-37.79,0.8990,0.1656,0.4565,-4.057,0.464,-5.756,-62.24,15.61,0.37,-3.08,-3.44
1919,786.52,814.73,915.46,0.0439,0.0425,1.1934,0.116,-0.024,-0.142,-2.06,1.84,0.1931,-0.6084,0.7939,0.318,-0.038,0.668,-10.96,-37.78,0.9008,0.1696,0.4443,-4.988,-0.956,-3.817,-62.26,15.60,0.37,-3.07,-3.44
1933,725.27,887.25,930.77,0.0420,0.0352,1.1997,0.055,0.083,-0.035,-2.06,1.84,0.1880,-0.6045,0.7915,-0.934,-0.038,0.943,-10.95,-37.78,0.9011,0.1616,0.4442,-5.018,-1.246,-2.856,-62.28,15.61,0.37,-3.07,-3.44
1948,991.21,1202.34,1211.21,0.0408,0.0405,1.1992,0.146,0.022,-0.081,-2.05,1.84,0.1887,-0.6057,0.7769,-1.086,-0.099,0.912,-10.95,-37.80,0.8948,0.1556,0.4336,-4.912,-1.216,-2.520,-62.31,15.62,0.37,-3.08,-3.45
1973,1755.97,1599.63,1623.81,0.0405,0.0371,1.1978,-0.312,0.053,0.011,-2.05,1.83,0.1917,-0.6040,0.7844,0.898,-0.206,0.454,-10.96,-37.78,0.8977,0.1356,0.4283,-4.606,-0.712,-3.787,-62.35,15.55,0.37,-3.08,-3.45
1988,1175.75,1075.82,1180.59,0.0435,0.0435,1.1965,-0.083,-0.039,-0.066,-2.05,1.84,0.1926,-0.6062,0.7922,-0.186,-0.038,0.561,-10.96,-37.77,0.8949,0.1354,0.4286,-4.377,0.036,-5.207,-62.37,15.53,0.37,-3.09,-3.46
2012,1753.55,1902.64,1793.85,0.0447,0.0396,1.2021,0.055,0.037,0.011,-2.05,1.84,0.1868,-0.6101,0.7881,-0.796,-0.191,0.775,-10.96,-37.79,0.8988,0.1478,0.4308,-3.767,1.487,-6.840,-62.35,15.50,0.37,-3.09,-3.46
2027,2309.60,2269.30,2140.37,0.0488,0.0371,1.1958,-0.281,-0.054,-0.127,-2.06,1.84,0.1873,-0.6101,0.7778,0.135,0.023,0.698,-10.95,-37.80,0.9011,0.1580,0.4381,-3.583,2.387,-6.825,-62.32,15.54,0.37,-3.09,-3.46
2041,2259.63,2105.71,2054.95,0.0425,0.0371,1.2019,0.253,0.114,-0.005,-2.06,1.84,0.1868,-0.6089,0.7864,0.410,-0.160,0.592,-10.95,-37.79,0.8989,0.1644,0.4452,-3.568,2.250,-6.336,-62.29,15.58,0.37,-3.09,-3.46
2066,760.73,927.55,981.54,0.0459,0.0430,1.1992,-0.174,-0.192,-0.066,-2.06,1.84,0.1919,-0.6101,0.7861,-0.384,-0.191,0.698,-10.95,-37.80,0.9008,0.1653,0.4563,-4.286,0.693,-4.764,-62.26,15.57,0.37,-3.09,-3.46
2081,1188.64,1426.37,1367.55,0.0469,0.0381,1.1975,-0.067,0.007,-0.020,-2.07,1.84,0.1919,-0.6077,0.7852,-0.980,-0.023,0.821,-10.95,-37.81,0.9016,0.1637,0.4542,-4.820,-0.544,-3.970,-62.26,15.58,0.38,-3.08,-3.46
2105,1499.71,1369.16,1426.37,0.0420,0.0420,1.1987,0.284,0.053,0.056,-2.06,1.85,0.1919,-0.6050,0.7900,0.654,-0.084,0.469,-10.95,-37.79,0.8972,0.1564,0.4410,-5.003,-1.842,-3.390,-62.30,15.54,0.38,-3.08,-3.46
2120,975.90,916.26,1019.41,0.0452,0.0376,1.2007,-0.296,-0.069,-0.050,-2.07,1.84,0.1899,-0.6057,0.7922,0.303,-0.099,0.485,-10.95,-37.78,0.8986,0.1516,0.4298,-5.018,-1.567,-3.405,-62.34,15.55,0.38,-3.08,-3.46
2135,734.14,800.22,894.51,0.0439,0.0420,1.1985,-0.037,0.068,0.194,-2.07,1.84,0.1892,-0.6101,0.7881,-1.056,-0.038,0.866,-10.95,-37.79,0.8999,0.1470,0.4259,-4.560,-0.422,-3.787,-62.37,15.55,0.38,-3.09,-3.47
2159,2358.75,2244.32,2153.26,0.0420,0.0420,1.2039,-0.021,0.007,0.026,-2.06,1.85,0.1919,-0.6086,0.7856,0.227,-0.099,0.637,-10.95,-37.78,0.8955,0.1406,0.4293,-3.996,1.334,-5.237,-62.35,15.51,0.38,-3.09,-3.47
2174,2083.15,1877.66,1864.76,0.0461,0.0366,1.1980,-0.250,-0.085,-0.096,-2.07,1.84,0.1921,-0.6045,0.7883,0.425,-0.145,0.561,-10.95,-37.77,0.8958,0.1427,0.4384,-3.812,1.746,-6.153,-62.34,15.50,0.38,-3.09,-3.47
2188,1431.21,1311.14,1378.83,0.0437,0.0386,1.1948,0.314,0.007,0.209,-2.07,1.85,0.1948,-0.6055,0.7932,-0.155,-0.084,0.698,-10.95,-37.77,0.8994,0.1525,0.4431,-3.935,1.838,-6.581,-62.31,15.52,0.38,-3.09,-3.47
2213,1429.60,1628.64,1560.95,0.0439,0.0337,1.2026,-0.357,-0.039,-0.142,-2.07,1.83,0.1926,-0.6086,0.7842,-0.613,-0.221,0.912,-10.96,-37.78,0.8998,0.1664,0.4513,-4.102,1.029,-6.077,-62.28,15.51,0.38,-3.09,-3.47
2228,2062.20,2146.01,2010.62,0.0457,0.0364,1.1982,-0.113,0.068,-0.005,-2.07,1.83,0.1865,-0.6064,0.7874,-0.384,-0.007,0.821,-10.95,-37.78,0.9005,0.1703,0.4458,-4.209,0.387,-5.023,-62.27,15.56,0.38,-3.09,-3.47
2252,852.60,845.35,950.11,0.0427,0.0403,1.2009,-0.021,0.083,-0.020,-2.07,1.83,0.1902,-0.6072,0.7861,0.242,-0.084,0.653,-10.95,-37.78,0.8999,0.1598,0.4470,-4.866,-0.834,-3.481,-62.29,15.52,0.38,-3.08,-3.47
2267,714.80,840.51,920.29,0.0454,0.0339,1.1917,-0.434,0.053,-0.081,-2.07,1.82,0.1892,-0.6050,0.7915,-0.751,0.008,0.759,-10.95,-37.78,0.8979,0.1553,0.4414,-4.820,-1.048,-3.100,-62.31,15.53,0.39,-3.08,-3.47
2282,929.96,1173.33,1163.66,0.0420,0.0393,1.1970,0.238,0.068,0.117,-2.07,1.82,0.1895,-0.6084,0.7791,-0.888,-0.068,0.973,-10.95,-37.80,0.8969,0.1482,0.4381,-4.835,-1.261,-3.405,-62.33,15.53,0.39,-3.09,-3.47
2306,1846.23,1693.92,1710.84,0.0437,0.0422,1.1941,-0.250,0.007,-0.127,-2.07,1.82,0.1887,-0.6096,0.7888,0.791,-0.175,0.576,-10.95,-37.77,0.8953,0.1399,0.4269,-4.454,-0.269,-4.657,-62.36,15.47,0.39,-3.09,-3.48
2321,1226.52,1125.79,1200.73,0.0432,0.0366,1.1978,-0.235,-0.054,0.041,-2.07,1.82,0.1931,-0.6074,0.7878,-0.002,-0.191,0.744,-10.95,-37.77,0.8975,0.1444,0.4254,-4.087,0.723,-5.252,-62.37,15.48,0.39,-3.09,-3.48
2346,1689.08,1850.26,1748.72,0.0420,0.0415,1.2021,0.299,-0.039,0.026,-2.07,1.83,0.1873,-0.6069,0.7844,-0.598,-0.145,0.790,-10.95,-37.79,0.8965,0.1498,0.4365,-3.782,2.067,-6.168,-62.33,15.45,0.39,-3.09,-3.48
2360,2294.29,2253.99,2135.53,0.0476,0.0383,1.2078,-0.357,-0.008,-0.112,-2.07,1.82,0.1880,-0.6072,0.7961,-0.002,-0.191,0.469,-10.95,-37.78,0.9000,0.1522,0.4447,-3.797,2.021,-6.306,-62.30,15.47,0.39,-3.09,-3.48
2385,764.76,800.22,882.42,0.0442,0.0435,1.1938,0.375,0.068,0.087,-2.07,1.84,0.1899,-0.6118,0.7854,0.059,0.161,0.714,-10.94,-37.78,0.9003,0.1665,0.4536,-4.377,1.059,-5.649,-62.27,15.46,0.39,-3.09,-3.48
2399,751.06,933.99,993.63,0.0393,0.0415,1.2014,0.101,0.022,0.163,-2.07,1.84,0.1912,-0.6074,0.7810,-0.308,-0.084,0.683,-10.94,-37.78,0.9001,0.1676,0.4513,-4.331,-0.040,-4.840,-62.26,15.49,0.39,-3.08,-3.48
2414,1147.55,1378.02,1365.93,0.0466,0.0356,1.1973,-0.556,0.007,0.041,-2.07,1.83,0.1912,-0.6089,0.7886,-0.705,0.008,0.988,-10.94,-37.79,0.9028,0.1663,0.4530,-5.018,-0.880,-3.756,-62.26,15.52,0.39,-3.08,-3.47
2439,1527.11,1400.59,1457.00,0.0439,0.0427,1.2007,0.482,0.037,-0.020,-2.07,1.85,0.1890,-0.6077,0.7925,0.242,-0.175,0.668,-10.94,-37.78,0.8993,0.1525,0.4401,-4.988,-1.414,-2.962,-62.31,15.47,0.39,-3.08,-3.48
2453,1000.07,943.66,1058.10,0.0391,0.0383,1.1960,-0.189,0.022,-0.066,-2.07,1.84,0.1895,-0.6074,0.7869,0.257,-0.114,0.530,-10.94,-37.77,0.8937,0.1459,0.4279,-4.927,-1.231,-3.314,-62.34,15.46,0.40,-3.08,-3.48
2478,2012.23,2099.27,1975.16,0.0454,0.0369,1.1997,0.330,0.022,0.087,-2.07,1.85,0.1909,-0.6099,0.7832,-0.644,-0.145,0.821,-10.94,-37.79,0.8967,0.1378,0.4252,-4.148,0.189,-4.962,-62.36,15.41,0.40,-3.09,-3.48
2492,2357.14,2269.30,2168.57,0.0442,0.0364,1.2039,0.253,-0.008,-0.081,-2.07,1.85,0.1917,-0.6108,0.7891,-0.018,-0.099,0.546,-10.94,-37.79,0.9001,0.1429,0.4275,-3.858,1.349,-6.046,-62.36,15.42,0.40,-3.09,-3.49
2517,710.77,819.56,894.51,0.0466,0.0422,1.2000,-0.037,0.053,-0.127,-2.07,1.85,0.1926,-0.6064,0.7852,-0.018,0.069,0.668,-10.94,-37.79,0.8965,0.1553,0.4386,-3.675,2.143,-6.581,-62.31,15.41,0.40,-3.09,-3.49
2532,898.53,1119.34,1121.76,0.0454,0.0413,1.2007,0.360,0.083,0.072,-2.07,1.86,0.1899,-0.6077,0.7908,-0.415,-0.175,0.683,-10.94,-37.79,0.9020,0.1633,0.4469,-3.629,1.868,-6.168,-62.28,15.45,0.40,-3.09,-3.49
2546,1494.07,1688.28,1622.20,0.0449,0.0383,1.2031,-0.220,-0.024,-0.035,-2.07,1.86,0.1873,-0.6057,0.7832,-0.613,-0.068,0.836,-10.93,-37.80,0.8966,0.1663,0.4551,-4.118,1.227,-5.390,-62.25,15.49,0.40,-3.08,-3.48
2571,1281.32,1153.19,1253.11,0.0408,0.0374,1.2002,0.162,0.022,0.087,-2.07,1.86,0.1912,-0.6086,0.7874,0.135,-0.160,0.668,-10.94,-37.79,0.9004,0.1628,0.4478,-4.988,-0.819,-3.695,-62.27,15.46,0.40,-3.08,-3.48
2586,840.51,832.45,932.38,0.0449,0.0366,1.1978,0.085,-0.115,-0.005,-2.07,1.86,0.1897,-0.6067,0.7815,0.333,-0.023,0.592,-10.94,-37.79,0.8995,0.1564,0.4447,-5.141,-1.536,-3.207,-62.29,15.46,0.40,-3.08,-3.48
2600,709.16,853.41,921.10,0.0415,0.0403,1.1975,-0.205,-0.008,0.072,-2.07,1.86,0.1909,-0.6104,0.7849,-0.567,-0.129,0.683,-10.94,-37.80,0.8973,0.1505,0.4344,-4.866,-1.490,-3.008,-62.33,15.46,0.40,-3.08,-3.48
2625,2311.21,2161.32,2084.76,0.0437,0.0403,1.1956,0.131,0.007,0.148,-2.07,1.86,0.1902,-0.6096,0.7898,-0.186,-0.068,0.668,-10.94,-37.80,0.8979,0.1406,0.4260,-4.637,-0.177,-4.046,-62.35,15.41,0.40,-3.08,-3.49
2639,1780.15,1630.26,1656.04,0.0430,0.0371,1.2002,-0.128,-0.054,0.041,-2.07,1.86,0.1936,-0.6086,0.7795,0.104,-0.114,0.714,-10.94,-37.80,0.8976,0.1415,0.4236,-4.240,0.571,-5.054,-62.37,15.41,0.40,-3.09,-3.49
2664,1070.18,1310.33,1281.32,0.0437,0.0396,1.1941,-0.052,0.037,0.102,-2.07,1.86,0.1885,-0.6086,0.7861,-0.201,-0.084,0.576,-10.94,-37.81,0.8940,0.1455,0.4338,-3.629,1.670,-6.596,-62.34,15.38,0.40,-3.09,-3.49
2679,1749.52,1901.03,1799.49,0.0447,0.0386,1.2000,-0.037,0.022,0.011,-2.07,1.86,0.1919,-0.6064,0.7913,-0.231,-0.084,0.744,-10.94,-37.80,0.9012,0.1565,0.4393,-3.889,2.067,-6.611,-62.32,15.41,0.40,-3.09,-3.49
2703,1056.48,983.96,1075.82,0.0442,0.0376,1.2026,-0.052,0.007,-0.050,-2.07,1.85,0.1924,-0.6096,0.7905,0.043,-0.023,0.729,-10.94,-37.80,0.9000,0.1644,0.4507,-4.118,1.227,-5.375,-62.28,15.41,0.41,-3.09,-3.49
2718,743.81,795.38,877.58,0.0459,0.0396,1.1997,0.085,-0.024,0.056,-2.08,1.86,0.1892,-0.6050,0.7888,0.364,-0.084,0.546,-10.94,-37.79,0.9017,0.1639,0.4552,-4.423,0.113,-4.504,-62.27,15.43,0.41,-3.08,-3.49
2732,761.54,941.25,1001.68,0.0459,0.0391,1.1978,0.040,0.068,0.087,-2.08,1.86,0.1890,-0.6055,0.7864,-0.491,-0.114,0.729,-10.93,-37.79,0.8999,0.1605,0.4504,-4.896,-0.727,-3.802,-62.27,15.44,0.41,-3.08,-3.49
2757,2155.68,1970.33,1941.32,0.0466,0.0398,1.1934,0.009,-0.008,0.102,-2.08,1.86,0.1951,-0.6079,0.7861,-0.262,-0.145,0.729,-10.94,-37.79,0.8973,0.1499,0.4369,-4.820,-1.490,-3.451,-62.32,15.40,0.41,-3.08,-3.49
2772,1469.89,1342.56,1405.42,0.0454,0.0356,1.1997,0.070,-0.024,-0.188,-2.08,1.86,0.1921,-0.6104,0.7935,0.242,-0.206,0.637,-10.94,-37.79,0.8978,0.1483,0.4271,-4.866,-1.200,-3.817,-62.35,15.40,0.41,-3.08,-3.49
2797,1356.26,1572.23,1503.74,0.0444,0.0437,1.1938,-0.037,0.129,-0.050,-2.08,1.86,0.1909,-0.6045,0.7861,-0.094,-0.160,0.607,-10.95,-37.78,0.8979,0.1443,0.4247,-4.148,0.403,-4.733,-62.37,15.37,0.41,-3.08,-3.49
2811,2050.11,2127.47,1991.28,0.0442,0.0422,1.2041,-0.067,-0.054,-0.005,-2.08,1.86,0.1863,-0.6069,0.7849,-0.064,-0.099,0.653,-10.94,-37.78,0.8987,0.1431,0.4333,-3.873,1.441,-5.466,-62.36,15.37,0.41,-3.09,-3.50
2836,871.94,863.88,963.00,0.0437,0.0386,1.1948,0.055,0.068,-0.081,-2.08,1.86,0.1890,-0.6130,0.7783,-0.384,-0.023,0.821,-10.94,-37.80,0.8982,0.1509,0.4440,-3.996,1.853,-6.260,-62.32,15.34,0.41,-3.09,-3.50
2850,697.88,809.08,886.45,0.0454,0.0381,1.2024,-0.021,0.022,0.072,-2.08,1.86,0.1914,-0.6057,0.7861,0.333,-0.038,0.561,-10.94,-37.79,0.8967,0.1553,0.4443,-3.950,1.151,-6.275,-62.30,15.37,0.41,-3.08,-3.50
2865,884.84,1095.97,1117.73,0.0439,0.0405,1.2007,-0.037,0.083,0.041,-2.08,1.86,0.1899,-0.6062,0.7969,-0.064,-0.084,0.668,-10.94,-37.78,0.9001,0.1633,0.4495,-4.286,0.678,-5.680,-62.28,15.40,0.41,-3.08,-3.49
2890,1886.52,1714.87,1740.66,0.0383,0.0386,1.1899,0.162,-0.131,-0.020,-2.08,1.87,0.1907,-0.6064,0.7812,-0.399,-0.007,0.744,-10.94,-37.79,0.9009,0.1663,0.4425,-4.637,-0.238,-4.062,-62.29,15.39,0.41,-3.08,-3.49
2904,1310.33,1199.12,1277.29,0.0420,0.0427,1.1956,-0.006,0.083,-0.096,-2.08,1.87,0.1848,-0.6099,0.7842,0.272,-0.023,0.561,-10.93,-37.79,0.9004,0.1593,0.4410,-4.637,-0.467,-3.298,-62.30,15.41,0.41,-3.08,-3.49
2929,1555.31,1745.49,1667.33,0.0447,0.0366,1.1985,0.070,0.037,-0.035,-2.08,1.87,0.1917,-0.6047,0.7844,-0.369,0.069,0.805,-10.93,-37.80,0.8967,0.1495,0.4395,-4.576,-0.681,-3.619,-62.33,15.37,0.41,-3.08,-3.49
2944,2206.45,2228.21,2097.66,0.0439,0.0400,1.2000,0.253,0.083,0.041,-2.08,1.87,0.1855,-0.6042,0.7830,-0.201,-0.145,0.683,-10.92,-37.80,0.8937,0.1432,0.4346,-4.896,-0.651,-4.153,-62.35,15.35,0.42,-3.08,-3.50
2968,800.22,808.28,911.43,0.0391,0.0381,1.2007,-0.083,0.083,0.056,-2.07,1.87,0.1936,-0.6099,0.7888,-0.293,-0.160,0.790,-10.93,-37.80,0.8976,0.1447,0.4281,-4.209,0.342,-5.390,-62.36,15.32,0.42,-3.09,-3.50
2983,734.95,889.67,941.25,0.0449,0.0356,1.1963,0.314,0.037,-0.096,-2.07,1.87,0.1909,-0.6079,0.7859,-0.247,-0.099,0.683,-10.93,-37.81,0.8967,0.1516,0.4355,-3.767,1.212,-5.894,-62.35,15.34,0.42,-3.09,-3.50
2998,1020.22,1269.23,1237.00,0.0471,0.0349,1.1978,-0.174,0.022,-0.081,-2.07,1.87,0.1899,-0.6108,0.7866,0.104,-0.267,0.500,-10.93,-37.80,0.8992,0.1525,0.4380,-3.660,1.471,-5.863,-62.33,15.37,0.42,-3.09,-3.51
3022,1686.67,1529.52,1581.10,0.0476,0.0437,1.2051,0.253,0.037,0.041,-2.08,1.88,0.1924,-0.6121,0.7861,-0.613,-0.053,0.805,-10.93,-37.82,0.8981,0.1588,0.4481,-4.011,1.242,-5.665,-62.30,15.35,0.42,-3.09,-3.50
3037,1097.58,1018.61,1120.95,0.0439,0.0393,1.1987,0.040,0.037,0.056,-2.08,1.88,0.1882,-0.6067,0.7888,0.043,-0.007,0.866,-10.93,-37.82,0.8997,0.1591,0.4543,-4.148,0.784,-5.191,-62.28,15.37,0.42,-3.08,-3.50
3052,774.43,795.38,924.32,0.0430,0.0347,1.1987,0.024,-0.039,0.011,-2.08,1.87,0.1912,-0.6116,0.7859,0.394,-0.114,0.393,-10.93,-37.81,0.9014,0.1604,0.4526,-4.484,-0.529,-4.642,-62.28,15.39,0.42,-3.08,-3.50
3076,2307.99,2278.17,2141.17,0.0413,0.0366,1.1975,0.208,-0.008,-0.020,-2.07,1.87,0.1907,-0.6096,0.7786,-0.934,-0.084,1.034,-10.93,-37.84,0.9003,0.1577,0.4409,-5.003,-0.956,-3.680,-62.31,15.35,0.42,-3.08,-3.50
3091,2228.21,2062.20,2013.04,0.0457,0.0403,1.1992,0.345,0.007,-0.188,-2.08,1.88,0.1902,-0.6118,0.7896,-0.277,-0.191,0.637,-10.93,-37.84,0.9017,0.1515,0.4302,-4.530,-0.956,-3.665,-62.34,15.37,0.42,-3.08,-3.50
3116,779.27,965.42,1020.22,0.0420,0.0383,1.1992,-0.159,-0.008,0.148,-2.08,1.88,0.1858,-0.6074,0.7903,0.089,-0.053,0.576,-10.92,-37.83,0.8934,0.1416,0.4315,-4.164,-0.025,-4.413,-62.35,15.33,0.42,-3.09,-3.51
3130,1237.00,1457.00,1407.03,0.0447,0.0366,1.1970,0.162,0.037,0.056,-2.08,1.88,0.1902,-0.6096,0.7891,-0.216,-0.084,0.561,-10.92,-37.83,0.8988,0.1445,0.4305,-4.286,0.616,-5.069,-62.36,15.33,0.42,-3.09,-3.51
3145,1895.38,2020.29,1893.77,0.0413,0.0408,1.2048,0.253,0.007,-0.112,-2.07,1.88,0.1851,-0.6086,0.7859,-0.354,-0.099,0.759,-10.92,-37.84,0.8970,0.1470,0.4342,-3.812,0.922,-5.924,-62.36,15.34,0.42,-3.09,-3.51
3169,958.97,917.88,1032.31,0.0444,0.0354,1.1973,0.024,0.053,0.072,-2.07,1.88,0.1899,-0.6077,0.7881,-0.399,0.008,0.958,-10.91,-37.84,0.8976,0.1573,0.4355,-3.950,1.609,-6.107,-62.33,15.34,0.42,-3.09,-3.51
3184,734.95,798.61,877.58,0.0435,0.0391,1.1985,0.620,0.007,0.133,-2.07,1.89,0.1919,-0.6094,0.7834,0.165,-0.236,0.530,-10.92,-37.84,0.9022,0.1584,0.4475,-4.072,1.136,-5.649,-62.31,15.36,0.42,-3.09,-3.51
3199,840.51,1031.50,1075.02,0.0471,0.0393,1.2007,-0.495,0.068,0.041,-2.08,1.88,0.1951,-0.6077,0.7966,0.288,-0.145,0.714,-10.92,-37.83,0.9027,0.1598,0.4487,-4.057,1.059,-5.222,-62.29,15.39,0.42,-3.09,-3.51
3223,2002.56,1835.75,1835.75,0.0427,0.0378,1.2012,0.681,0.098,0.056,-2.07,1.89,0.1934,-0.6099,0.7861,-1.117,-0.099,0.866,-10.92,-37.85,0.8989,0.1600,0.4501,-4.545,-0.544,-4.123,-62.30,15.36,0.42,-3.09,-3.51
3238,1358.68,1237.00,1335.31,0.0400,0.0393,1.1997,-0.006,0.022,-0.035,-2.07,1.89,0.1877,-0.6072,0.7908,0.303,-0.038,0.607,-10.92,-37.84,0.8975,0.1545,0.4453,-4.896,-0.864,-3.756,-62.31,15.37,0.42,-3.09,-3.51
3263,1533.55,1722.12,1611.72,0.0457,0.0364,1.1946,0.116,0.098,0.056,-2.07,1.89,0.1919,-0.6091,0.7893,-0.552,-0.114,0.805,-10.92,-37.85,0.8999,0.1478,0.4288,-4.805,-0.544,-3.970,-62.34,15.33,0.42,-3.09,-3.51
3278,1869.60,1982.42,1870.40,0.0457,0.0425,1.1968,0.681,0.221,0.072,-2.07,1.91,0.1885,-0.6135,0.7847,-0.873,-0.084,0.912,-10.92,-37.87,0.8965,0.1482,0.4286,-4.270,-0.116,-4.504,-62.36,15.34,0.42,-3.09,-3.52
3293,2323.30,2267.69,2149.23,0.0420,0.0334,1.2002,-0.479,-0.024,0.102,-2.07,1.89,0.1909,-0.6069,0.7805,0.089,-0.160,0.500,-10.92,-37.87,0.8989,0.1478,0.4269,-4.102,0.891,-5.176,-62.37,15.35,0.42,-3.10,-3.52
3318,733.33,795.38,889.67,0.0432,0.0378,1.2024,0.864,0.098,0.240,-2.06,1.91,0.1890,-0.6128,0.7861,0.227,-0.236,0.622,-10.92,-37.86,0.9011,0.1506,0.4382,-3.812,1.471,-5.787,-62.34,15.33,0.42,-3.10,-3.52
3332,805.86,1004.10,1031.50,0.0410,0.0417,1.2029,-0.159,-0.008,0.087,-2.06,1.91,0.1885,-0.6074,0.7849,0.685,-0.129,0.729,-10.92,-37.85,0.8997,0.1550,0.4406,-4.118,1.563,-5.543,-62.32,15.35,0.42,-3.10,-3.52
3347,1220.07,1457.00,1417.51,0.0439,0.0393,1.1958,-0.296,0.037,-0.020,-2.06,1.91,0.1868,-0.6052,0.7788,-0.644,-0.007,0.912,-10.92,-37.86,0.8947,0.1583,0.4475,-4.255,0.632,-5.085,-62.31,15.38,0.42,-3.10,-3.52
3372,1477.95,1336.12,1403.00,0.0437,0.0374,1.1997,0.253,-0.024,0.087,-2.06,1.91,0.1860,-0.6072,0.7908,0.364,0.084,0.607,-10.91,-37.84,0.8929,0.1554,0.4421,-4.667,-0.254,-4.443,-62.32,15.34,0.42,-3.10,-3.52
3386,953.33,925.93,1008.94,0.0476,0.0352,1.2043,-0.296,0.022,0.041,-2.07,1.90,0.1968,-0.6045,0.7915,0.562,-0.206,0.439,-10.92,-37.83,0.9019,0.1541,0.4401,-4.469,-0.620,-4.504,-62.33,15.36,0.42,-3.10,-3.52
3401,722.05,797.80,889.67,0.0400,0.0396,1.1958,-0.128,-0.054,0.209,-2.06,1.90,0.1917,-0.6089,0.7859,-0.873,0.176,1.126,-10.91,-37.84,0.8964,0.1532,0.4369,-4.698,-0.238,-4.657,-62.34,15.37,0.42,-3.10,-3.52
3425,2347.47,2237.88,2157.29,0.0432,0.0374,1.1980,-0.128,-0.039,0.072,-2.07,1.89,0.1929,-0.6077,0.7957,0.165,-0.420,0.408,-10.92,-37.83,0.9008,0.1522,0.4347,-4.438,0.097,-4.443,-62.35,15.34,0.42,-3.10,-3.53
3440,2013.85,1855.90,1854.29,0.0403,0.0305,1.2004,-0.861,0.007,0.087,-2.06,1.87,0.1890,-0.6052,0.7888,-0.354,-0.007,0.897,-10.92,-37.82,0.8970,0.1501,0.4386,-4.484,0.601,-4.657,-62.35,15.35,0.42,-3.10,-3.53
3465,914.65,1124.98,1136.26,0.0452,0.0393,1.1987,0.696,0.022,-0.005,-2.06,1.89,0.1929,-0.6121,0.7830,-0.094,-0.023,0.668,-10.92,-37.83,0.8998,0.1503,0.4382,-4.316,0.311,-5.268,-62.35,15.31,0.42,-3.10,-3.53
3479,1517.44,1688.28,1610.92,0.0435,0.0364,1.1970,-0.495,-0.039,-0.020,-2.07,1.88,0.1880,-0.6060,0.7922,0.394,-0.023,0.515,-10.92,-37.82,0.8983,0.1526,0.4371,-4.102,0.113,-5.161,-62.35,15.33,0.42,-3.11,-3.53
3494,2094.43,2160.51,2022.71,0.0383,0.0369,1.2041,-0.083,0.037,-0.005,-2.06,1.88,0.1929,-0.6101,0.7852,-0.430,-0.068,0.759,-10.92,-37.82,0.9036,0.1561,0.4335,-4.225,0.616,-5.191,-62.36,15.36,0.42,-3.11,-3.53
3519,853.41,838.10,950.92,0.0425,0.0400,1.2004,0.284,0.083,-0.020,-2.06,1.88,0.1917,-0.6094,0.7876,0.654,-0.206,0.317,-10.93,-37.80,0.9050,0.1537,0.4357,-4.133,0.922,-4.810,-62.35,15.34,0.42,-3.11,-3.53
3533,722.05,843.74,917.88,0.0447,0.0396,1.1965,-0.510,-0.024,-0.050,-2.06,1.88,0.1970,-0.6035,0.7908,-0.354,0.039,0.821,-10.93,-37.80,0.8976,0.1543,0.4412,-4.286,0.708,-4.810,-62.34,15.36,0.42,-3.11,-3.53
3548,921.10,1139.49,1157.22,0.0486,0.0393,1.1987,0.345,0.053,0.011,-2.06,1.88,0.1938,-0.6130,0.7859,-0.796,-0.114,1.111,-10.93,-37.82,0.8971,0.1556,0.4408,-4.393,0.479,-4.810,-62.34,15.38,0.42,-3.11,-3.53
3573,1847.84,1685.86,1706.81,0.0459,0.0398,1.1946,-0.144,0.068,-0.050,-2.06,1.88,0.1904,-0.6045,0.7817,0.547,0.039,0.821,-10.93,-37.80,0.8984,0.1531,0.4407,-4.484,-0.238,-4.627,-62.35,15.35,0.42,-3.11,-3.53
3587,1237.00,1132.23,1203.96,0.0393,0.0386,1.1970,-0.342,0.098,0.072,-2.06,1.87,0.1902,-0.6062,0.7874,-0.369,-0.038,0.759,-10.93,-37.80,0.9005,0.1528,0.4357,-4.576,-0.055,-4.275,-62.36,15.36,0.42,-3.11,-3.53
3612,1683.44,1839.78,1744.69,0.0415,0.0425,1.1960,0.253,0.251,-0.081,-2.05,1.88,0.1904,-0.6108,0.7896,0.089,-0.053,0.515,-10.93,-37.80,0.8972,0.1477,0.4386,-4.637,0.052,-4.123,-62.36,15.31,0.42,-3.12,-3.53
3626,2282.20,2245.93,2129.89,0.0422,0.0386,1.1960,-0.647,-0.054,-0.157,-2.05,1.87,0.1899,-0.6113,0.7888,-0.674,-0.053,0.790,-10.93,-37.81,0.8962,0.1454,0.4326,-4.347,0.006,-4.581,-62.38,15.32,0.42,-3.12,-3.54
3651,773.63,801.83,889.67,0.0432,0.0386,1.2004,0.513,-0.024,-0.050,-2.05,1.88,0.1895,-0.6077,0.7847,0.425,-0.175,0.546,-10.93,-37.80,0.9003,0.1458,0.4329,-4.255,0.464,-5.619,-62.38,15.28,0.42,-3.12,-3.54
3666,741.39,913.04,973.48,0.0444,0.0393,1.2012,-0.037,0.007,-0.020,-2.05,1.88,0.1897,-0.6052,0.7815,0.135,-0.099,0.668,-10.93,-37.79,0.8984,0.1576,0.4344,-3.950,0.708,-5.726,-62.38,15.32,0.41,-3.13,-3.54
3680,1082.27,1320.81,1290.18,0.0435,0.0369,1.1978,-0.571,0.083,-0.112,-2.05,1.87,0.1929,-0.6106,0.7876,-0.751,-0.206,0.912,-10.93,-37.80,0.9045,0.1569,0.4349,-4.072,1.136,-5.619,-62.37,15.35,0.41,-3.13,-3.54
3705,1627.03,1470.70,1523.88,0.0449,0.0398,1.2051,0.345,0.221,0.102,-2.05,1.88,0.1904,-0.6099,0.7822,0.303,0.069,0.714,-10.93,-37.80,0.8995,0.1599,0.4484,-4.026,0.845,-4.688,-62.35,15.34,0.41,-3.13,-3.54
3720,1097.58,1031.50,1117.73,0.0396,0.0391,1.1975,-0.067,0.129,0.026,-2.04,1.88,0.1931,-0.6079,0.7878,0.272,-0.007,0.622,-10.93,-37.79,0.8988,0.1555,0.4503,-4.530,0.387,-4.077,-62.34,15.35,0.41,-3.13,-3.54
3735,762.34,788.13,898.53,0.0403,0.0386,1.1948,-0.250,0.114,-0.127,-2.04,1.88,0.1870,-0.6047,0.7930,-0.064,0.100,0.836,-10.92,-37.78,0.8973,0.1516,0.4468,-4.744,-0.635,-3.878,-62.34,15.35,0.41,-3.13,-3.54
3759,2316.85,2277.36,2157.29,0.0476,0.0454,1.2002,0.238,0.068,0.056,-2.04,1.89,0.1931,-0.6052,0.7893,-0.583,-0.160,0.561,-10.93,-37.79,0.8972,0.1467,0.4333,-4.835,-1.338,-4.245,-62.39,15.30,0.41,-3.14,-3.54
3774,2197.58,2042.86,1988.06,0.0420,0.0405,1.1958,-0.235,0.037,-0.066,-2.04,1.89,0.1899,-0.6099,0.7795,-0.247,-0.068,0.729,-10.93,-37.80,0.8988,0.1470,0.4296,-4.438,-0.544,-4.550,-62.41,15.30,0.41,-3.14,-3.55
3799,786.52,965.42,1013.77,0.0491,0.0359,1.2014,0.437,0.068,0.072,-2.05,1.89,0.1919,-0.6062,0.7876,0.181,-0.068,0.683,-10.93,-37.79,0.8954,0.1477,0.4281,-3.904,1.105,-5.176,-62.40,15.28,0.41,-3.14,-3.55
3813,1224.10,1457.00,1404.62,0.0474,0.0398,1.2065,-0.205,-0.008,0.011,-2.05,1.89,0.1890,-0.6111,0.7859,-0.766,-0.191,0.729,-10.93,-37.80,0.9034,0.1494,0.4325,-3.904,1.502,-5.573,-62.39,15.30,0.41,-3.15,-3.55
3828,1874.43,2000.15,1892.16,0.0427,0.0339,1.2026,-0.373,-0.131,0.072,-2.05,1.88,0.1897,-0.6079,0.7915,-0.781,-0.068,0.897,-10.93,-37.81,0.8967,0.1547,0.4460,-3.767,1.624,-5.756,-62.37,15.33,0.41,-3.15,-3.55
3853,981.54,932.38,1039.56,0.0437,0.0403,1.1968,0.040,0.022,-0.188,-2.05,1.88,0.1863,-0.6094,0.7859,0.547,-0.129,0.530,-10.92,-37.80,0.8998,0.1613,0.4475,-4.347,0.387,-5.604,-62.35,15.31,0.41,-3.15,-3.55
3867,738.97,797.00,906.59,0.0425,0.0371,1.1990,-0.388,0.007,0.041,-2.05,1.87,0.1902,-0.6082,0.7834,-0.338,-0.007,0.775,-10.92,-37.80,0.8998,0.1621,0.4370,-4.423,-0.223,-4.993,-62.36,15.35,0.41,-3.15,-3.55
3882,795.38,997.66,1024.25,0.0393,0.0393,1.2031,0.085,0.068,0.056,-2.05,1.87,0.1902,-0.6091,0.7847,-0.659,-0.099,0.805,-10.92,-37.81,0.9008,0.1622,0.4352,-4.698,-0.422,-4.199,-62.38,15.38,0.41,-3.15,-3.56
3907,2101.69,1915.53,1882.49,0.0427,0.0371,1.2043,-0.235,-0.069,0.102,-2.05,1.87,0.1899,-0.6064,0.7844,0.272,-0.160,0.592,-10.92,-37.80,0.8988,0.1477,0.4355,-4.774,-0.223,-3.344,-62.39,15.33,0.41,-3.15,-3.56
3921,1457.00,1290.99,1386.89,0.0449,0.0386,1.1912,-0.373,-0.054,-0.066,-2.05,1.86,0.1968,-0.6045,0.7966,0.059,-0.099,0.653,-10.93,-37.79,0.8979,0.1423,0.4369,-4.591,-0.055,-3.741,-62.40,15.32,0.41,-3.16,-3.56
3946,1419.12,1620.59,1552.89,0.0396,0.0405,1.2073,0.177,0.053,0.117,-2.05,1.87,0.1909,-0.6128,0.7930,-0.552,-0.267,0.653,-10.93,-37.80,0.8961,0.1388,0.4385,-4.057,0.326,-5.497,-62.40,15.27,0.40,-3.16,-3.56
3961,2097.66,2125.86,2024.32,0.0437,0.0391,1.2017,-0.464,-0.039,0.011,-2.05,1.86,0.1899,-0.6033,0.7883,-0.735,0.023,0.943,-10.93,-37.80,0.8977,0.1473,0.4319,-3.889,0.693,-6.336,-62.41,15.28,0.40,-3.16,-3.56
3975,2339.41,2235.46,2151.65,0.0457,0.0364,1.1975,0.162,-0.039,0.087,-2.05,1.86,0.1909,-0.6108,0.7781,0.043,-0.252,0.637,-10.93,-37.81,0.9011,0.1589,0.4331,-3.919,1.166,-6.520,-62.40,15.33,0.40,-3.16,-3.57
4000,723.66,821.98,915.46,0.0442,0.0388,1.2000,-0.220,-0.024,0.026,-2.05,1.85,0.1838,-0.6099,0.7854,-0.170,-0.053,0.759,-10.93,-37.81,0.9008,0.1652,0.4417,-4.057,1.471,-5.039,-62.36,15.33,0.40,-3.16,-3.57
4014,933.19,1135.46,1156.41,0.0422,0.0364,1.1975,-0.174,0.068,0.026,-2.05,1.85,0.1885,-0.6079,0.7971,-0.674,-0.252,0.851,-10.92,-37.81,0.8993,0.1597,0.4469,-4.301,0.525,-4.168,-62.35,15.36,0.40,-3.16,-3.56
4029,1510.18,1702.78,1612.53,0.0420,0.0425,1.1965,0.223,-0.115,0.148,-2.05,1.86,0.1895,-0.6060,0.7827,-0.354,-0.068,0.729,-10.92,-37.82,0.8983,0.1561,0.4520,-4.820,-0.132,-3.833,-62.35,15.36,0.40,-3.16,-3.56
4054,1298.24,1177.36,1271.65,0.0466,0.0388,1.1992,-0.250,-0.054,-0.066,-2.06,1.85,0.1948,-0.6064,0.7874,0.104,0.008,0.561,-10.93,-37.81,0.9020,0.1472,0.4379,-4.942,-1.277,-4.031,-62.39,15.31,0.40,-3.16,-3.56
4068,842.12,824.40,922.71,0.0454,0.0396,1.1951,-0.067,0.007,0.011,-2.06,1.85,0.1897,-0.6079,0.7864,-0.094,-0.053,0.683,-10.93,-37.81,0.8990,0.1505,0.4292,-4.469,-0.925,-4.581,-62.42,15.32,0.40,-3.16,-3.57
4083,719.63,838.10,911.43,0.0413,0.0427,1.1909,0.131,0.022,0.026,-2.06,1.86,0.1919,-0.6121,0.7905,-0.384,-0.191,0.592,-10.93,-37.81,0.8984,0.1493,0.4258,-4.469,0.174,-4.764,-62.43,15.34,0.40,-3.17,-3.57
4108,2319.27,2187.91,2101.69,0.0442,0.0383,1.2007,-0.052,0.022,0.011,-2.06,1.85,0.1907,-0.6099,0.7817,-0.216,-0.084,0.698,-10.93,-37.82,0.8982,0.1481,0.4349,-3.950,1.762,-5.222,-62.40,15.31,0.41,-3.17,-3.57
4122,1835.75,1663.30,1696.34,0.0452,0.0381,1.1980,0.253,0.098,-0.035,-2.06,1.86,0.1880,-0.6067,0.7878,0.227,-0.068,0.607,-10.92,-37.81,0.9006,0.1487,0.4419,-3.858,1.639,-5.604,-62.38,15.32,0.41,-3.17,-3.57
4137,1237.00,1134.65,1221.69,0.0466,0.0393,1.2039,0.070,0.037,-0.035,-2.06,1.86,0.1926,-0.6060,0.7935,-0.247,-0.084,0.683,-10.93,-37.81,0.8981,0.1542,0.4536,-4.194,1.044,-5.619,-62.36,15.33,0.41,-3.17,-3.57
4162,1666.52,1830.11,1749.52,0.0435,0.0364,1.1973,0.009,-0.039,-0.005,-2.06,1.86,0.1882,-0.6133,0.7815,-0.598,0.054,0.882,-10.92,-37.83,0.9010,0.1622,0.4452,-4.530,-0.315,-5.222,-62.36,15.31,0.41,-3.16,-3.57
4176,2252.38,2241.10,2112.97,0.0405,0.0383,1.1963,0.116,0.053,-0.005,-2.06,1.86,0.1882,-0.6099,0.7759,0.227,-0.084,0.576,-10.92,-37.83,0.9015,0.1617,0.4379,-4.637,-0.758,-4.397,-62.38,15.35,0.41,-3.16,-3.57
4201,775.24,803.44,904.98,0.0420,0.0364,1.2034,-0.189,0.098,-0.050,-2.06,1.85,0.1960,-0.6086,0.7861,-0.170,-0.129,0.790,-10.93,-37.84,0.9006,0.1582,0.4314,-4.667,-0.300,-3.527,-62.40,15.33,0.41,-3.17,-3.57
4216,751.06,930.77,967.03,0.0425,0.0391,1.1934,0.131,0.175,-0.005,-2.05,1.85,0.1880,-0.6086,0.7847,-0.491,-0.053,0.729,-10.92,-37.84,0.8970,0.1483,0.4357,-4.499,0.372,-3.787,-62.40,15.34,0.41,-3.17,-3.57
4230,1108.06,1336.92,1327.25,0.0410,0.0408,1.2019,0.101,0.053,0.041,-2.05,1.86,0.1921,-0.6079,0.7871,-0.384,0.023,0.866,-10.92,-37.84,0.8971,0.1412,0.4343,-4.225,0.265,-4.382,-62.41,15.33,0.41,-3.17,-3.58
4255,1614.14,1426.37,1485.20,0.0437,0.0371,1.1956,-0.052,-0.069,-0.096,-2.05,1.85,0.1921,-0.6104,0.7874,0.089,-0.145,0.790,-10.93,-37.84,0.8971,0.1464,0.4393,-4.087,0.449,-5.863,-62.40,15.29,0.41,-3.17,-3.58
4269,1027.47,958.17,1072.60,0.0430,0.0381,1.2009,0.330,0.022,0.087,-2.05,1.86,0.1897,-0.6106,0.7908,-0.018,-0.145,0.607,-10.93,-37.84,0.9016,0.1523,0.4376,-3.980,0.723,-6.123,-62.40,15.31,0.41,-3.17,-3.58
4284,763.15,812.31,926.74,0.0422,0.0417,1.1992,-0.052,-0.100,-0.005,-2.05,1.86,0.1909,-0.6086,0.7949,-0.781,-0.145,0.897,-10.92,-37.84,0.9014,0.1609,0.4326,-4.041,1.105,-5.741,-62.40,15.36,0.41,-3.17,-3.58
4309,2316.85,2230.62,2145.20,0.0415,0.0388,1.1990,-0.083,-0.008,0.102,-2.05,1.86,0.1892,-0.6125,0.7844,0.165,-0.068,0.454,-10.92,-37.84,0.9031,0.1615,0.4462,-4.240,1.136,-4.627,-62.37,15.35,0.41,-3.17,-3.58
4323,2062.20,1912.31,1888.13,0.0454,0.0366,1.1978,0.146,-0.054,0.026,-2.05,1.86,0.1938,-0.6086,0.7832,0.288,-0.007,0.714,-10.93,-37.84,0.8986,0.1569,0.4471,-4.469,0.342,-4.321,-62.36,15.36,0.41,-3.17,-3.58
4338,1472.31,1337.73,1409.45,0.0417,0.0400,1.2012,-0.067,0.098,-0.035,-2.05,1.86,0.1921,-0.6055,0.7856,-0.277,-0.099,0.927,-10.93,-37.84,0.8990,0.1542,0.4431,-4.698,-0.483,-4.153,-62.37,15.37,0.41,-3.17,-3.58
4363,1336.92,1560.15,1493.26,0.0391,0.0359,1.1982,-0.037,-0.100,-0.020,-2.05,1.85,0.1895,-0.6094,0.7800,-0.308,-0.191,0.698,-10.93,-37.85,0.8994,0.1510,0.4312,-4.851,-0.987,-4.275,-62.40,15.33,0.41,-3.17,-3.58
4377,1975.97,2062.20,1952.60,0.0415,0.0378,1.1938,-0.021,-0.115,0.072,-2.05,1.85,0.1919,-0.6084,0.7900,-0.079,-0.129,0.683,-10.93,-37.84,0.8993,0.1484,0.4255,-4.637,-0.437,-4.397,-62.43,15.34,0.41,-3.17,-3.58
4402,900.15,876.78,1000.88,0.0435,0.0410,1.2061,-0.189,0.114,-0.020,-2.05,1.85,0.1931,-0.6040,0.7937,0.288,-0.160,0.378,-10.94,-37.82,0.9020,0.1472,0.4303,-4.072,1.029,-5.023,-62.42,15.31,0.40,-3.18,-3.58
4417,744.62,850.99,927.55,0.0425,0.0383,1.1953,0.070,-0.024,0.011,-2.05,1.85,0.1921,-0.6101,0.7869,-0.659,-0.068,1.004,-10.94,-37.83,0.8983,0.1451,0.4399,-3.767,1.746,-5.527,-62.40,15.32,0.40,-3.18,-3.58
4431,905.79,1108.06,1139.49,0.0398,0.0417,1.1958,0.177,0.098,0.026,-2.04,1.86,0.1848,-0.6086,0.7825,-0.644,-0.084,0.790,-10.93,-37.84,0.9008,0.1484,0.4430,-3.721,1.288,-5.970,-62.39,15.33,0.40,-3.18,-3.58
4456,1894.58,1735.82,1740.66,0.0444,0.0388,1.1943,-0.052,-0.054,-0.050,-2.05,1.85,0.1917,-0.6069,0.7898,0.379,-0.160,0.515,-10.93,-37.83,0.8978,0.1586,0.4493,-4.118,0.342,-5.787,-62.37,15.31,0.40,-3.18,-3.58
4470,1296.63,1186.23,1272.45,0.0432,0.0374,1.1970,0.131,-0.008,0.087,-2.05,1.86,0.1907,-0.6077,0.7893,-0.537,-0.160,0.897,-10.93,-37.83,0.9011,0.1650,0.4449,-4.499,-0.009,-4.993,-62.37,15.35,0.40,-3.18,-3.58
4495,1585.93,1767.25,1693.11,0.0432,0.0396,1.2012,-0.312,0.022,0.041,-2.05,1.85,0.1907,-0.6111,0.7937,-0.018,-0.099,0.637,-10.93,-37.83,0.9028,0.1569,0.4360,-4.530,-0.223,-3.695,-62.38,15.33,0.40,-3.18,-3.58
4510,2174.21,2179.85,2060.59,0.0439,0.0364,1.1956,0.085,0.053,-0.035,-2.05,1.85,0.1924,-0.6072,0.7864,-0.491,0.069,0.897,-10.93,-37.83,0.8995,0.1509,0.4430,-4.652,-0.208,-3.558,-62.39,15.33,0.40,-3.18,-3.58
4534,814.73,838.10,944.47,0.0415,0.0371,1.1980,-0.189,0.068,0.056,-2.04,1.84,0.1897,-0.6140,0.7849,0.028,-0.145,0.592,-10.93,-37.83,0.8999,0.1436,0.4329,-4.576,-0.498,-4.382,-62.42,15.28,0.40,-3.18,-3.58
4549,788.13,950.11,992.01,0.0466,0.0349,1.2046,-0.418,-0.131,0.056,-2.05,1.83,0.1926,-0.6091,0.7874,-0.277,-0.114,0.729,-10.94,-37.84,0.8998,0.1447,0.4255,-4.454,-0.254,-5.222,-62.44,15.29,0.40,-3.18,-3.58
4564,1085.49,1312.75,1302.27,0.0435,0.0354,1.1973,0.467,0.068,0.072,-2.05,1.84,0.1907,-0.6133,0.7800,-0.522,-0.160,0.775,-10.94,-37.85,0.9000,0.1510,0.4292,-4.225,0.571,-5.527,-62.45,15.31,0.40,-3.19,-3.59
4588,1617.36,1483.59,1536.78,0.0415,0.0371,1.1965,-0.342,-0.085,0.133,-2.05,1.83,0.1885,-0.6055,0.7847,0.791,-0.175,0.408,-10.94,-37.83,0.9027,0.1539,0.4320,-3.858,1.471,-5.314,-62.42,15.30,0.40,-3.19,-3.59
4603,1108.06,1035.53,1122.56,0.0437,0.0386,1.2009,-0.006,-0.131,-0.020,-2.05,1.83,0.1907,-0.6094,0.7878,-0.460,-0.206,0.866,-10.94,-37.83,0.8988,0.1526,0.4375,-3.965,1.548,-5.100,-62.41,15.32,0.40,-3.19,-3.59
4628,1840.59,1948.57,1851.87,0.0398,0.0427,1.2029,0.116,-0.069,0.041,-2.05,1.83,0.1938,-0.6055,0.7886,-0.109,-0.129,0.683,-10.94,-37.83,0.9001,0.1522,0.4476,-4.179,0.647,-5.207,-62.39,15.29,0.40,-3.19,-3.59
4642,2248.35,2199.19,2094.43,0.0444,0.0349,1.2004,-0.403,0.007,0.041,-2.05,1.82,0.1912,-0.6074,0.7874,0.089,-0.038,0.561,-10.94,-37.82,0.8992,0.1552,0.4453,-4.286,0.006,-5.252,-62.39,15.31,0.40,-3.19,-3.59
4657,2125.86,1971.94,1928.42,0.0435,0.0371,1.1936,0.223,0.022,0.133,-2.05,1.83,0.1887,-0.6055,0.7798,-0.308,-0.114,1.034,-10.94,-37.83,0.8962,0.1616,0.4403,-4.606,-0.651,-4.993,-62.40,15.34,0.40,-3.19,-3.58
4682,850.99,1021.03,1072.60,0.0388,0.0400,1.1995,-0.449,0.037,0.087,-2.05,1.82,0.1938,-0.6104,0.7837,0.043,-0.084,0.592,-10.95,-37.83,0.9041,0.1547,0.4329,-4.530,-0.238,-3.756,-62.42,15.32,0.39,-3.19,-3.59
4696,1303.88,1499.71,1477.95,0.0452,0.0337,1.2026,-0.663,0.022,-0.081,-2.05,1.80,0.1924,-0.6091,0.7859,-0.964,-0.023,1.034,-10.95,-37.84,0.9025,0.1501,0.4338,-4.591,0.555,-3.772,-62.42,15.33,0.39,-3.19,-3.59
4721,1414.29,1300.66,1369.96,0.0442,0.0359,1.2056,0.375,0.144,-0.005,-2.05,1.81,0.1895,-0.6121,0.7866,0.379,-0.160,0.500,-10.95,-37.83,0.9011,0.1442,0.4335,-4.408,0.265,-4.993,-62.43,15.28,0.39,-3.19,-3.59
4735,965.42,934.80,1020.22,0.0435,0.0376,1.1985,-0.937,-0.024,-0.173,-2.05,1.80,0.1914,-0.6125,0.7878,0.868,0.023,0.607,-10.94,-37.82,0.8995,0.1501,0.4342,-3.889,0.143,-5.604,-62.44,15.30,0.39,-3.20,-3.59
4750,792.16,869.52,954.14,0.0444,0.0352,1.2019,0.589,0.144,0.179,-2.05,1.80,0.1912,-0.6121,0.7903,-0.430,-0.023,0.882,-10.94,-37.83,0.9025,0.1539,0.4335,-4.209,0.418,-5.588,-62.44,15.33,0.39,-3.20,-3.59
4775,2271.72,2163.74,2062.20,0.0439,0.0378,1.1902,-0.510,0.007,0.026,-2.05,1.79,0.1895,-0.6062,0.7900,0.028,-0.053,0.683,-10.94,-37.82,0.8989,0.1577,0.4359,-4.316,0.876,-4.718,-62.43,15.31,0.39,-3.20,-3.59
4789,1920.37,1753.55,1757.58,0.0447,0.0374,1.1951,-0.357,-0.100,0.011,-2.05,1.79,0.1917,-0.6096,0.7888,-0.338,-0.282,0.637,-10.94,-37.82,0.9012,0.1562,0.4410,-4.072,0.678,-4.489,-62.42,15.34,0.39,-3.20,-3.59
4804,1404.62,1282.12,1365.93,0.0461,0.0425,1.1975,0.818,0.129,0.133,-2.05,1.80,0.1882,-0.6067,0.7795,0.104,0.115,0.866,-10.94,-37.82,0.8973,0.1520,0.4460,-4.606,0.433,-4.352,-62.41,15.34,0.39,-3.20,-3.59
4829,1482.78,1662.49,1598.02,0.0435,0.0415,1.2009,-0.678,-0.024,-0.005,-2.05,1.79,0.1924,-0.6050,0.7952,0.211,-0.221,0.393,-10.94,-37.80,0.8967,0.1461,0.4408,-4.545,-0.208,-4.611,-62.42,15.29,0.39,-3.20,-3.59
4843,2037.22,2096.85,1985.64,0.0425,0.0403,1.2007,0.024,-0.054,-0.081,-2.05,1.79,0.1890,-0.6050,0.7837,-1.743,0.039,1.095,-10.94,-37.83,0.8988,0.1487,0.4364,-4.454,-0.132,-5.100,-62.43,15.30,0.39,-3.20,-3.59
4868,889.67,880.81,1012.16,0.0435,0.0425,1.1992,-0.006,-0.024,0.087,-2.06,1.80,0.1895,-0.6101,0.7920,0.776,-0.053,0.546,-10.94,-37.80,0.8954,0.1558,0.4384,-3.568,0.723,-5.359,-62.42,15.30,0.39,-3.20,-3.59
4883,784.10,892.09,955.75,0.0452,0.0359,1.1958,-0.586,-0.100,-0.066,-2.06,1.79,0.1885,-0.6072,0.7925,0.181,-0.191,0.607,-10.93,-37.79,0.8954,0.1521,0.4410,-3.858,0.784,-4.978,-62.41,15.32,0.39,-3.20,-3.59
4897,954.95,1173.33,1178.97,0.0437,0.0391,1.1929,0.437,0.114,-0.020,-2.06,1.80,0.1858,-0.6096,0.7854,-0.659,0.084,0.973,-10.93,-37.80,0.8967,0.1536,0.4403,-4.240,0.968,-5.069,-62.39,15.33,0.39,-3.20,-3.59
4922,1843.00,1701.98,1698.75,0.0449,0.0349,1.2019,-0.510,0.037,0.041,-2.06,1.78,0.1909,-0.6118,0.7878,-0.613,-0.252,0.790,-10.93,-37.82,0.9094,0.1530,0.4387,-5.003,0.052,-4.703,-62.40,15.29,0.39,-3.20,-3.59
4937,1263.59,1160.44,1237.00,0.0444,0.0371,1.1951,-0.327,0.053,-0.188,-2.06,1.78,0.1895,-0.6118,0.7871,-0.277,0.023,0.973,-10.93,-37.82,0.8967,0.1550,0.4446,-4.560,-0.376,-4.550,-62.41,15.30,0.40,-3.20,-3.59
4962,1653.63,1805.13,1707.62,0.0422,0.0383,1.1997,0.101,0.114,0.026,-2.06,1.78,0.1899,-0.6118,0.7939,0.547,-0.099,0.607,-10.93,-37.81,0.8998,0.1543,0.4346,-5.049,-0.101,-4.642,-62.42,15.27,0.40,-3.20,-3.60
4976,2242.71,2204.84,2062.20,0.0410,0.0352,1.1992,-0.678,0.037,-0.081,-2.05,1.77,0.1921,-0.6108,0.7893,-0.995,-0.023,1.050,-10.93,-37.82,0.9028,0.1531,0.4358,-3.538,0.510,-4.627,-62.42,15.30,0.40,-3.20,-3.60
4991,2262.05,2096.04,1998.53,0.0457,0.0364,1.1968,0.330,0.129,-0.020,-2.05,1.77,0.1938,-0.6116,0.7842,-0.919,-0.007,0.866,-10.93,-37.84,0.9005,0.1521,0.4352,-4.454,0.861,-4.657,-62.42,15.31,0.40,-3.20,-3.60
5016,794.58,925.13,1008.94,0.0439,0.0381,1.2034,-0.220,-0.024,0.011,-2.06,1.77,0.1931,-0.6067,0.7832,0.685,-0.023,0.485,-10.93,-37.82,0.8970,0.1504,0.4385,-4.011,0.525,-4.871,-62.41,15.29,0.40,-3.20,-3.60
5030,1120.95,1332.09,1304.69,0.0430,0.0356,1.1965,-0.388,0.068,-0.005,-2.05,1.76,0.1914,-0.6106,0.7961,-0.262,-0.038,0.775,-10.93,-37.81,0.8966,0.1498,0.4393,-4.591,0.143,-4.993,-62.41,15.29,0.40,-3.20,-3.60
5045,1709.23,1839.78,1765.64,0.0415,0.0369,1.1956,0.559,0.098,-0.050,-2.05,1.77,0.1902,-0.6138,0.7839,-0.308,-0.053,0.744,-10.93,-37.82,0.9005,0.1516,0.4429,-4.270,-0.101,-4.962,-62.42,15.30,0.40,-3.20,-3.60
5070,1141.10,1057.29,1148.35,0.0452,0.0413,1.1980,-0.434,-0.024,-0.066,-2.05,1.76,0.1877,-0.6096,0.7922,-0.109,-0.084,0.683,-10.92,-37.82,0.8992,0.1504,0.4335,-4.316,0.326,-4.749,-62.42,15.28,0.40,-3.20,-3.60
5084,802.64,852.60,942.86,0.0129,0.1106,1.1562,1.414,-0.115,0.698,-2.03,1.86,0.1814,-0.5754,0.8069,15.601,-0.099,-2.050,-10.91,-37.55,0.8190,0.1615,0.4064,-4.377,7.533,-2.596,-62.30,15.34,0.40,-3.20,-3.59
5099,786.52,940.44,1008.94,0.0981,0.0840,1.2258,-2.831,0.389,-2.096,-2.07,1.86,0.2832,-0.6216,0.8132,-3.911,-0.267,-3.424,-11.01,-37.61,0.9691,0.1094,0.4719,-3.293,2.769,-12.245,-62.28,15.25,0.40,-3.19,-3.58
5124,2197.58,2010.62,1961.47,0.0156,0.0420,1.1599,0.849,-0.772,1.018,-2.07,1.88,0.2361,-0.6262,0.7734,5.921,2.115,-7.241,-11.00,-37.49,0.8983,0.1687,0.4933,-8.530,0.540,-6.993,-62.22,15.11,0.39,-3.17,-3.56
5138,1607.69,1457.00,1500.51,0.0356,0.0522,1.1787,-5.762,-1.001,0.575,-2.07,1.81,0.1614,-0.5994,0.8455,7.585,-1.580,-2.630,-10.98,-37.34,0.8533,0.2358,0.4906,-5.446,-8.116,-8.367,-62.24,15.25,0.39,-3.16,-3.55
5163,1230.55,1449.74,1398.17,0.0366,0.0176,1.1938,1.459,0.068,-0.432,-2.07,1.83,0.1858,-0.6155,0.7969,4.074,-0.862,0.363,-10.99,-37.25,0.9225,0.1787,0.4431,-3.125,-0.803,1.847,-62.27,15.30,0.39,-3.15,-3.54
5177,1934.07,2027.55,1895.38,0.0193,0.0337,1.2173,1.979,0.098,0.179,-2.04,1.85,0.1863,-0.6279,0.8000,-7.117,-0.206,0.897,-10.98,-37.37,0.9370,0.1622,0.4387,0.737,-2.071,4.992,-62.32,15.42,0.38,-3.15,-3.53
5192,2452.23,2315.24,2153.26,0.0525,-0.0107,1.1912,-5.151,-0.207,-0.692,-2.05,1.73,0.1826,-0.6572,0.7480,-12.522,-1.656,3.843,-11.00,-37.62,0.8887,0.1448,0.4417,-5.614,-2.193,2.686,-62.36,15.39,0.38,-3.15,-3.53
5217,967.03,922.71,917.88,0.0115,0.0144,1.1848,2.238,0.908,0.163,-2.00,1.76,0.1633,-0.5940,0.7881,10.425,0.359,-0.599,-10.96,-37.36,0.9205,0.0792,0.4388,-7.599,-3.628,-3.054,-62.48,15.10,0.38,-3.16,-3.54
5231,774.43,979.12,1033.11,0.0447,-0.0071,1.1802,0.772,0.694,0.072,-1.99,1.73,0.1741,-0.6289,0.7803,-0.720,1.947,-0.874,-10.91,-37.40,0.8766,0.1127,0.3710,-6.545,-6.773,-0.856,-62.65,15.04,0.38,-3.19,-3.56
5246,1237.00,1457.00,1415.90,0.0674,-0.0137,1.1960,-3.823,-0.665,-0.646,-2.03,1.63,0.1760,-0.6426,0.7595,-7.346,-0.740,1.721,-10.90,-37.56,0.9155,0.1575,0.3428,-2.606,-1.445,-9.497,-62.77,15.20,0.38,-3.21,-3.59
5271,1420.73,1302.27,1398.17,0.0522,0.0356,1.2041,3.688,0.343,0.117,-2.03,1.72,0.1943,-0.6426,0.7615,2.898,-0.481,-0.141,-10.91,-37.54,0.9185,0.1663,0.3292,-0.530,9.395,-11.069,-62.65,15.42,0.38,-3.23,-3.61
5285,928.35,895.31,1038.75,0.0454,0.0391,1.2029,0.559,0.129,0.499,-2.03,1.73,0.1851,-0.6162,0.7864,10.410,0.206,-0.920,-10.90,-37.40,0.9320,0.1766,0.4211,0.508,14.387,-5.130,-62.47,15.57,0.38,-3.24,-3.62
5300,676.92,786.52,901.76,0.0403,0.0430,1.1924,-1.701,-0.024,0.163,-2.03,1.72,0.1851,-0.5789,0.8237,7.982,0.649,0.546,-10.88,-37.24,0.8792,0.1765,0.5071,0.615,13.349,-5.695,-62.20,15.65,0.38,-3.22,-3.60
5325,2338.61,2230.62,2115.38,0.0386,0.0574,1.2034,2.177,0.389,0.148,-2.02,1.79,0.1819,-0.6116,0.7710,-11.560,0.039,4.683,-10.87,-37.55,0.8657,0.1412,0.5690,-4.469,-0.925,-4.993,-62.10,15.51,0.39,-3.20,-3.59
5339,2054.95,1851.87,1857.51,0.0376,0.0701,1.2095,-0.999,0.007,0.270,-2.01,1.80,0.2031,-0.6221,0.7717,2.227,-0.603,-0.096,-10.90,-37.54,0.9208,0.1672,0.5217,-7.064,-9.918,-3.787,-62.18,15.45,0.39,-3.19,-3.57
5364,838.90,1072.60,1097.58,0.0413,0.0496,1.1941,1.566,0.282,0.820,-2.00,1.85,0.1995,-0.5791,0.8179,2.837,0.985,1.019,-10.88,-37.43,0.9189,0.1904,0.3816,-7.965,-9.216,-1.390,-62.46,15.48,0.39,-3.19,-3.58
5379,1392.53,1590.77,1541.61,0.0447,0.0554,1.2034,0.956,0.297,0.148,-2.00,1.88,0.1934,-0.5952,0.7905,-5.865,0.039,2.195,-10.88,-37.51,0.9056,0.1541,0.3597,-6.331,-2.651,3.496,-62.58,15.55,0.39,-3.21,-3.60
5394,2048.50,2114.58,1970.33,0.0400,0.0493,1.1973,-2.525,-0.161,-0.646,-2.00,1.86,0.1914,-0.6033,0.7839,-4.857,-0.068,1.004,-10.88,-37.58,0.8813,0.0968,0.4021,-3.950,3.914,1.755,-62.57,15.45,0.39,-3.22,-3.61
5418,778.46,801.83,943.66,0.0420,0.0439,1.2097,1.994,0.083,0.392,-2.00,1.91,0.1946,-0.6206,0.7786,3.692,-0.038,-0.279,-10.89,-37.51,0.8669,0.0710,0.4608,-3.232,4.555,-9.237,-62.45,15.24,0.39,-3.23,-3.62
5433,584.25,760.73,888.86,0.0432,0.0339,1.2004,-2.510,-0.115,-0.402,-2.00,1.87,0.1904,-0.6074,0.8025,3.692,-0.389,0.133,-10.89,-37.45,0.9064,0.1017,0.4644,-2.576,1.563,-15.130,-62.42,15.14,0.39,-3.23,-3.62
5447,771.21,1054.07,1095.97,0.0437,0.0242,1.1982,-0.479,0.098,0.026,-2.00,1.85,0.1943,-0.6101,0.7954,-6.155,-0.587,1.828,-10.90,-37.54,0.8986,0.1747,0.4292,-3.736,0.723,-15.848,-62.42,15.23,0.39,-3.23,-3.62
5472,1894.58,1711.65,1728.57,0.0405,0.0354,1.2007,0.437,0.160,0.209,-2.00,1.85,0.1748,-0.6355,0.7607,0.501,0.145,0.561,-10.88,-37.57,0.9253,0.2543,0.4100,-3.247,2.433,-5.894,-62.36,15.48,0.39,-3.23,-3.62
5487,1216.85,1124.98,1237.00,0.0417,0.0222,1.1946,-2.006,-0.100,-0.203,-2.00,1.81,0.1963,-0.6069,0.7969,9.585,-0.007,-1.607,-10.88,-37.43,0.9131,0.2256,0.4462,-5.003,4.311,0.228,-62.28,15.64,0.39,-3.22,-3.61
5501,783.30,805.86,933.99,0.0388,0.0293,1.1890,0.895,0.251,0.194,-1.99,1.81,0.1865,-0.5933,0.7961,1.081,0.466,0.775,-10.87,-37.40,0.9028,0.1604,0.4829,-5.049,0.616,4.717,-62.23,15.62,0.39,-3.21,-3.60
5526,2307.18,2262.05,2110.55,0.0398,0.0371,1.1978,-1.350,-0.207,-0.279,-2.00,1.78,0.1851,-0.6213,0.7769,-3.148,-0.526,0.759,-10.88,-37.50,0.8927,0.0978,0.4707,-6.866,-7.658,0.671,-62.41,15.37,0.39,-3.22,-3.61
5541,2382.93,2180.66,2101.69,0.0461,0.0376,1.1885,-1.075,-0.268,0.056,-2.00,1.77,0.1885,-0.6104,0.7932,2.669,-0.267,0.561,-10.88,-37.46,0.8848,0.0984,0.4139,-6.301,-7.567,-4.550,-62.56,15.25,0.39,-3.23,-3.62
5565,737.36,913.04,971.87,0.0444,0.0493,1.1992,0.452,0.037,0.072,-2.01,1.79,0.1912,-0.5957,0.8047,2.486,0.023,0.561,-10.88,-37.38,0.9006,0.1375,0.3511,-2.881,0.586,-7.833,-62.64,15.30,0.39,-3.25,-3.64
5580,1101.61,1345.79,1294.21,0.0474,0.0371,1.1987,-1.441,-0.008,-0.157,-2.01,1.77,0.2043,-0.5989,0.7927,-3.453,-0.420,0.790,-10.90,-37.43,0.9012,0.1521,0.3800,-2.591,8.433,-8.794,-62.57,15.39,0.39,-3.26,-3.65
5595,1830.92,1930.04,1786.59,0.0496,0.0364,1.1890,0.498,0.114,0.224,-2.02,1.78,0.1929,-0.6143,0.7700,-6.888,-0.068,2.485,-10.90,-37.55,0.8940,0.1514,0.4320,-0.286,10.922,-8.520,-62.42,15.47,0.39,-3.26,-3.65
5620,1237.00,1089.52,1173.33,0.0454,0.0459,1.1936,-0.220,0.007,0.041,-2.02,1.78,0.1953,-0.6018,0.7954,7.982,-0.175,-1.164,-10.91,-37.34,0.8882,0.1660,0.5294,-2.240,4.357,-8.092,-62.23,15.45,0.39,-3.24,-3.63
5634,776.85,811.50,924.32,0.0457,0.0366,1.1978,-0.922,-0.039,-0.188,-2.02,1.76,0.1968,-0.5918,0.8093,0.730,0.054,0.393,-10.91,-37.31,0.8990,0.1788,0.5100,-5.064,-1.842,-7.436,-62.19,15.45,0.39,-3.23,-3.62
5649,668.06,837.29,924.32,0.0476,0.0371,1.1956,0.803,0.236,0.041,-2.03,1.78,0.1882,-0.6101,0.7773,-7.850,-0.129,2.882,-10.91,-37.44,0.9064,0.2010,0.4760,-6.515,-7.170,-4.520,-62.25,15.51,0.39,-3.21,-3.61
5674,2295.09,2111.36,2049.30,0.0422,0.0396,1.2031,-0.968,-0.069,-0.035,-2.03,1.75,0.1919,-0.6118,0.7815,3.066,-0.404,-0.050,-10.92,-37.38,0.9075,0.1875,0.4033,-6.942,-5.658,1.938,-62.43,15.53,0.39,-3.22,-3.61
5688,1703.59,1547.25,1585.93,0.0449,0.0337,1.1946,-0.388,-0.100,-0.035,-2.03,1.75,0.1897,-0.6064,0.7944,3.646,0.191,0.118,-10.92,-37.32,0.8998,0.1426,0.3944,-5.736,-2.742,3.694,-62.52,15.53,0.39,-3.22,-3.62
5713,1065.35,1319.19,1323.22,0.0474,0.0430,1.2039,0.666,0.053,-0.035,-2.03,1.77,0.1909,-0.6042,0.7881,-2.552,-0.374,0.714,-10.92,-37.39,0.8865,0.0780,0.4254,-4.072,1.609,-2.443,-62.51,15.33,0.39,-3.23,-3.62
5727,1832.53,1947.77,1856.70,0.0420,0.0371,1.1904,-1.167,-0.115,-0.203,-2.04,1.75,0.1860,-0.6128,0.7769,-4.689,-0.084,1.859,-10.92,-37.47,0.8906,0.0822,0.4282,-3.095,2.082,-8.474,-62.51,15.20,0.39,-3.24,-3.63
5752,981.54,941.25,1074.21,0.0427,0.0452,1.2073,1.444,0.114,0.117,-2.03,1.80,0.1909,-0.6057,0.7869,6.135,-0.099,-0.554,-10.92,-37.33,0.8993,0.1506,0.4222,-2.393,3.090,-13.375,-62.45,15.23,0.39,-3.24,-3.63
5767,703.52,797.00,911.43,0.0454,0.0469,1.2000,-0.510,-0.039,-0.203,-2.04,1.80,0.1985,-0.5940,0.8052,2.547,-0.129,-0.096,-10.93,-37.27,0.9089,0.1923,0.4292,-3.034,4.952,-11.222,-62.38,15.37,0.39,-3.23,-3.63
5781,752.67,958.97,1029.89,0.0444,0.0388,1.1914,-0.785,-0.207,-0.157,-2.04,1.79,0.1917,-0.6045,0.7917,-6.277,0.039,2.118,-10.93,-37.36,0.9095,0.2048,0.4502,-2.652,4.876,-7.054,-62.30,15.51,0.39,-3.23,-3.62
5806,2165.35,1947.77,1908.28,0.0422,0.0452,1.2007,0.375,-0.008,0.056,-2.04,1.80,0.1902,-0.6135,0.7764,2.028,-0.389,-0.111,-10.94,-37.33,0.8965,0.1769,0.4977,-4.774,-0.025,-0.962,-62.24,15.47,0.39,-3.21,-3.60
5821,1445.71,1298.24,1375.60,0.0459,0.0364,1.1960,-1.182,-0.237,0.102,-2.05,1.79,0.1936,-0.6062,0.7859,4.456,0.084,-0.309,-10.94,-37.28,0.8984,0.1519,0.4858,-6.301,-4.132,-0.367,-62.26,15.42,0.39,-3.20,-3.59
5845,1482.78,1667.33,1585.93,0.0452,0.0413,1.2014,1.200,0.068,0.148,-2.05,1.82,0.1897,-0.6121,0.7839,-2.812,-0.328,1.095,-10.94,-37.36,0.8977,0.1387,0.4210,-6.774,-7.536,-1.466,-62.48,15.31,0.39,-3.21,-3.60
5860,2150.84,2179.05,2022.71,0.0466,0.0439,1.2034,-0.189,-0.039,0.026,-2.05,1.82,0.1914,-0.6189,0.7805,-3.560,-0.404,1.416,-10.95,-37.43,0.9069,0.1368,0.3850,-5.736,-4.590,-2.596,-62.61,15.32,0.39,-3.22,-3.61
5885,788.13,810.70,937.22,0.0439,0.0398,1.1926,0.223,0.083,0.087,-2.05,1.83,0.1885,-0.6152,0.7861,3.692,0.176,-0.080,-10.94,-37.35,0.9031,0.1230,0.3885,-3.125,3.960,-5.023,-62.57,15.29,0.39,-3.23,-3.62
5899,644.69,788.13,896.12,0.0469,0.0400,1.1985,0.925,0.160,0.148,-2.05,1.84,0.1912,-0.5952,0.7983,2.929,-0.038,-0.202,-10.94,-37.30,0.8878,0.1212,0.4224,-2.545,6.784,-7.054,-62.50,15.27,0.39,-3.23,-3.62
5914,872.75,1129.01,1156.41,0.0417,0.0403,1.2053,-0.815,-0.161,-0.035,-2.05,1.83,0.1958,-0.6072,0.7976,-3.850,-0.221,1.355,-10.94,-37.35,0.8917,0.1327,0.4579,-2.133,6.052,-9.665,-62.40,15.25,0.39,-3.23,-3.62
5939,1825.27,1638.32,1689.08,0.0430,0.0410,1.1960,0.772,0.022,0.117,-2.05,1.85,0.1882,-0.6157,0.7671,0.746,-0.191,0.317,-10.94,-37.36,0.9016,0.1777,0.4683,-3.385,1.655,-10.016,-62.33,15.28,0.39,-3.22,-3.61
5953,1158.02,1087.11,1195.90,0.0420,0.0388,1.1985,0.452,-0.024,0.072,-2.05,1.86,0.1865,-0.6042,0.7893,4.501,-0.114,-0.233,-10.94,-37.30,0.9102,0.2037,0.4642,-4.622,-0.788,-6.627,-62.31,15.38,0.39,-3.21,-3.60
5978,1697.14,1854.29,1779.34,0.0442,0.0342,1.2007,-0.449,-0.146,-0.050,-2.06,1.85,0.1890,-0.6084,0.7878,-2.827,-0.313,1.111,-10.94,-37.38,0.9126,0.1865,0.4409,-5.690,-2.284,0.030,-62.37,15.40,0.39,-3.21,-3.60
5992,2320.88,2280.59,2136.34,0.0415,0.0403,1.2019,0.986,0.114,0.224,-2.05,1.86,0.1907,-0.6150,0.7825,-3.392,-0.297,1.217,-10.95,-37.44,0.8976,0.1509,0.4398,-5.675,-2.406,1.526,-62.41,15.39,0.39,-3.21,-3.60
6017,704.32,772.01,899.34,0.0383,0.0400,1.1990,-0.846,-0.192,-0.234,-2.05,1.84,0.1860,-0.6084,0.7815,2.944,0.054,0.042,-10.94,-37.38,0.8883,0.1044,0.4332,-5.217,-2.696,-1.588,-62.49,15.22,0.39,-3.21,-3.60
6032,701.10,939.63,992.82,0.0432,0.0359,1.1958,0.101,-0.069,-0.081,-2.05,1.84,0.1887,-0.5999,0.8020,2.578,-0.175,-0.080,-10.94,-37.33,0.8940,0.1052,0.4170,-4.835,-1.704,-5.466,-62.55,15.13,0.39,-3.22,-3.61
6046,1121.76,1378.02,1340.15,0.0464,0.0430,1.1980,0.528,0.022,0.072,-2.06,1.85,0.1943,-0.6057,0.7952,-3.163,-0.023,1.294,-10.94,-37.37,0.8962,0.1267,0.4027,-3.400,0.433,-8.733,-62.59,15.13,0.39,-3.23,-3.62
6071,1547.25,1378.83,1446.52,0.0435,0.0413,1.1982,-0.327,0.144,0.056,-2.05,1.85,0.1907,-0.6230,0.7690,-0.048,-0.175,0.683,-10.94,-37.41,0.9043,0.1687,0.4153,-2.408,5.578,-9.252,-62.47,15.21,0.39,-3.24,-3.63
6086,1004.10,952.53,1079.85,0.0469,0.0432,1.2019,0.391,0.007,0.087,-2.06,1.86,0.1948,-0.6089,0.7922,4.715,-0.007,-0.263,-10.94,-37.34,0.9069,0.1774,0.4482,-3.034,6.571,-7.451,-62.37,15.30,0.39,-3.23,-3.62
6100,693.04,788.94,876.78,0.0457,0.0354,1.2017,0.009,0.114,0.087,-2.06,1.85,0.1897,-0.6067,0.7888,0.517,0.023,0.729,-10.94,-37.34,0.8979,0.1777,0.4830,-2.973,4.372,-6.062,-62.27,15.35,0.39,-3.22,-3.61
6125,2372.45,2267.69,2135.53,0.0417,0.0354,1.1943,0.223,0.114,-0.020,-2.05,1.86,0.1880,-0.6133,0.7693,-3.285,-0.282,1.187,-10.94,-37.44,0.8973,0.1724,0.4852,-5.583,-2.956,-3.176,-62.29,15.30,0.39,-3.21,-3.60
6139,2136.34,1923.59,1895.38,0.0420,0.0386,1.1992,0.253,-0.115,-0.050,-2.05,1.86,0.1890,-0.6167,0.7778,1.066,-0.206,0.393,-10.94,-37.45,0.9075,0.1650,0.4534,-6.377,-5.933,-1.878,-62.37,15.30,0.39,-3.20,-3.59
6164,824.40,1046.01,1096.78,0.0430,0.0383,1.1877,0.146,0.068,-0.096,-2.05,1.86,0.1902,-0.5977,0.7783,1.707,0.069,0.515,-10.94,-37.41,0.8966,0.1528,0.4004,-6.041,-3.780,-0.657,-62.51,15.27,0.39,-3.21,-3.60
6179,1390.92,1598.02,1538.39,0.0459,0.0422,1.2012,0.666,0.053,0.163,-2.06,1.87,0.1912,-0.6064,0.7859,-1.850,-0.236,0.821,-10.94,-37.44,0.8992,0.1299,0.3943,-4.774,-0.880,-1.451,-62.57,15.26,0.39,-3.22,-3.61
6193,2062.20,2109.74,1989.67,0.0469,0.0405,1.1980,-0.754,-0.115,-0.050,-2.06,1.87,0.1860,-0.6143,0.7791,-3.254,-0.175,1.446,-10.94,-37.50,0.8965,0.1135,0.4092,-4.057,2.449,-3.726,-62.58,15.21,0.39,-3.23,-3.62
6218,853.41,850.99,987.99,0.0422,0.0378,1.1973,0.895,0.083,0.133,-2.06,1.89,0.1855,-0.6125,0.7849,3.158,-0.145,0.195,-10.94,-37.44,0.8932,0.1199,0.4425,-3.034,4.128,-9.130,-62.48,15.13,0.39,-3.23,-3.62
6233,682.56,821.17,921.10,0.0417,0.0388,1.2000,-0.083,-0.008,0.011,-2.06,1.88,0.1909,-0.6077,0.7983,2.150,-0.023,0.164,-10.93,-37.40,0.8981,0.1519,0.4458,-2.545,3.197,-10.672,-62.44,15.17,0.39,-3.23,-3.62
6247,865.49,1098.39,1123.37,0.0452,0.0369,1.2046,-0.708,-0.085,-0.112,-2.06,1.87,0.1880,-0.6086,0.7927,-3.148,-0.206,1.416,-10.93,-37.45,0.9072,0.1779,0.4513,-3.644,2.540,-9.451,-62.39,15.24,0.39,-3.23,-3.62
6272,1906.67,1730.18,1742.27,0.0447,0.0432,1.1980,0.589,0.129,-0.020,-2.06,1.89,0.1865,-0.6130,0.7759,0.517,-0.252,0.515,-10.93,-37.45,0.9089,0.1953,0.4562,-4.530,0.586,-3.649,-62.35,15.29,0.39,-3.22,-3.62
6286,1237.00,1147.55,1230.55,0.0430,0.0422,1.1990,-0.815,-0.100,-0.096,-2.06,1.88,0.1934,-0.6094,0.7893,3.341,0.054,-0.111,-10.93,-37.41,0.9010,0.1768,0.4609,-5.232,-0.620,-1.085,-62.34,15.33,0.39,-3.22,-3.61
6311,1630.26,1812.38,1732.60,0.0435,0.0393,1.2017,0.666,0.083,-0.066,-2.06,1.90,0.1909,-0.6089,0.7864,-2.170,-0.206,0.973,-10.94,-37.47,0.8912,0.1398,0.4493,-5.415,-3.307,-0.932,-62.42,15.24,0.39,-3.21,-3.61
6326,2282.20,2249.16,2116.19,0.0474,0.0396,1.2031,0.162,0.053,0.072,-2.06,1.90,0.1887,-0.6089,0.7776,-2.659,-0.175,1.156,-10.94,-37.52,0.8993,0.1248,0.4265,-6.011,-3.628,-2.749,-62.50,15.18,0.40,-3.22,-3.61
6350,758.32,791.36,928.35,0.0427,0.0352,1.1946,-0.067,0.114,0.041,-2.06,1.89,0.1887,-0.6128,0.7859,1.906,0.054,0.485,-10.93,-37.48,0.9039,0.1335,0.4020,-4.545,-0.498,-5.619,-62.56,15.13,0.40,-3.23,-3.62
6365,734.95,928.35,991.21,0.0435,0.0391,1.1960,0.681,0.053,0.026,-2.06,1.90,0.1860,-0.6042,0.7878,1.952,0.115,0.164,-10.92,-37.45,0.8965,0.1445,0.4044,-3.186,2.387,-6.642,-62.56,15.18,0.40,-3.24,-3.63
6379,1136.26,1367.55,1353.85,0.0432,0.0398,1.1963,-0.220,-0.024,-0.020,-2.06,1.90,0.1877,-0.6035,0.7891,-1.926,-0.175,1.141,-10.92,-37.48,0.9010,0.1478,0.4250,-3.263,4.372,-6.581,-62.51,15.21,0.40,-3.24,-3.64
6404,1585.13,1463.44,1490.04,0.0420,0.0378,1.1987,0.452,-0.054,0.072,-2.06,1.91,0.1836,-0.6140,0.7756,0.089,-0.145,0.714,-10.92,-37.50,0.8999,0.1542,0.4623,-3.660,3.212,-6.504,-62.42,15.19,0.40,-3.24,-3.64
6419,1029.89,975.09,1081.47,0.0437,0.0405,1.2036,0.269,-0.008,-0.127,-2.06,1.91,0.1941,-0.6060,0.7976,3.158,-0.084,-0.096,-10.92,-37.45,0.8987,0.1565,0.4680,-3.950,0.907,-6.489,-62.38,15.19,0.40,-3.23,-3.63
6433,764.76,812.31,925.13,0.0466,0.0393,1.1946,-0.693,-0.085,-0.188,-2.06,1.90,0.1941,-0.6064,0.7939,0.318,-0.084,0.653,-10.92,-37.44,0.9005,0.1696,0.4584,-4.927,-1.277,-5.512,-62.38,15.23,0.40,-3.23,-3.63
6458,2329.74,2237.07,2123.44,0.0452,0.0420,1.1943,0.543,0.037,0.026,-2.06,1.92,0.1870,-0.6140,0.7769,-2.506,-0.282,1.004,-10.92,-37.52,0.9048,0.1697,0.4299,-5.446,-2.162,-3.100,-62.44,15.22,0.40,-3.23,-3.63
6473,2161.32,1974.36,1926.81,0.0432,0.0364,1.1992,-0.174,0.022,-0.081,-2.06,1.91,0.1877,-0.6147,0.7871,0.440,-0.099,0.622,-10.92,-37.52,0.9021,0.1605,0.4243,-4.576,-1.231,-2.291,-62.48,15.26,0.41,-3.23,-3.63
6498,835.68,1044.40,1072.60,0.0432,0.0361,1.1936,0.375,0.190,0.194,-2.06,1.92,0.1882,-0.6038,0.7903,1.372,-0.068,0.500,-10.92,-37.49,0.8939,0.1322,0.4296,-4.454,0.158,-2.794,-62.49,15.19,0.41,-3.23,-3.64
6512,1363.52,1569.01,1477.95,0.0427,0.0415,1.1975,0.299,0.053,0.026,-2.06,1.92,0.1914,-0.6094,0.7908,-1.422,-0.160,0.897,-10.92,-37.51,0.8920,0.1272,0.4353,-4.484,0.342,-4.611,-62.50,15.15,0.41,-3.24,-3.64
6527,1933.26,2022.71,1912.31,0.0444,0.0403,1.1973,-0.464,-0.085,-0.005,-2.06,1.92,0.1877,-0.6111,0.7861,-2.689,-0.053,1.156,-10.91,-37.55,0.8973,0.1310,0.4299,-3.950,0.387,-6.535,-62.51,15.13,0.41,-3.24,-3.65
6552,963.00,929.96,1031.50,0.0449,0.0422,1.1995,0.437,0.083,0.026,-2.06,1.93,0.1895,-0.6101,0.7871,2.852,-0.114,-0.004,-10.91,-37.49,0.9033,0.1581,0.4281,-3.690,1.441,-7.436,-62.49,15.14,0.41,-3.24,-3.65
6566,759.93,842.12,920.29,0.0452,0.0349,1.2002,-0.281,-0.008,0.056,-2.06,1.92,0.1892,-0.6077,0.7937,0.608,-0.129,0.698,-10.91,-37.48,0.9023,0.1721,0.4388,-3.690,2.586,-6.733,-62.45,15.22,0.41,-3.24,-3.65
6581,850.99,1046.01,1082.27,0.0464,0.0398,1.1987,-0.189,-0.054,0.026,-2.07,1.92,0.1895,-0.6062,0.7854,-2.934,-0.099,1.248,-10.91,-37.53,0.9010,0.1694,0.4427,-3.629,2.281,-5.420,-62.41,15.28,0.41,-3.24,-3.65
6606,2013.04,1835.75,1831.72,0.0415,0.0359,1.2048,0.146,-0.054,0.041,-2.07,1.92,0.1860,-0.6106,0.7864,0.623,-0.175,0.378,-10.91,-37.52,0.8953,0.1597,0.4626,-4.515,-0.223,-3.695,-62.40,15.24,0.41,-3.23,-3.65
6620,1411.87,1298.24,1362.71,0.0410,0.0359,1.2029,-0.357,-0.008,0.011,-2.06,1.91,0.1914,-0.6062,0.7878,1.799,0.023,0.393,-10.91,-37.49,0.8950,0.1542,0.4547,-5.309,-1.719,-3.466,-62.41,15.24,0.42,-3.23,-3.65
6635,966.23,933.19,1053.26,0.0410,0.0400,1.2019,0.040,-0.024,0.011,-2.06,1.91,0.1926,-0.6064,0.7898,0.257,-0.129,0.500,-10.91,-37.49,0.8998,0.1489,0.4402,-5.217,-2.834,-3.588,-62.46,15.23,0.42,-3.23,-3.65
6660,2035.60,2087.99,1988.06,0.0427,0.0408,1.2017,-0.021,-0.054,0.072,-2.06,1.91,0.1870,-0.6089,0.7839,-2.293,-0.160,1.065,-10.91,-37.55,0.8999,0.1464,0.4194,-4.866,-1.139,-3.634,-62.51,15.19,0.42,-3.23,-3.65
6674,2283.00,2187.11,2087.99,0.0432,0.0400,1.2036,-0.174,-0.131,0.102,-2.06,1.90,0.1873,-0.6118,0.7876,0.028,-0.038,0.683,-10.91,-37.56,0.8981,0.1396,0.4164,-4.194,0.800,-4.123,-62.53,15.20,0.42,-3.24,-3.66
6699,775.24,879.19,959.78,0.0393,0.0413,1.1953,0.131,-0.008,-0.066,-2.06,1.91,0.1838,-0.6050,0.7944,1.127,-0.236,0.271,-10.90,-37.52,0.8958,0.1373,0.4365,-3.415,2.403,-6.001,-62.48,15.16,0.42,-3.24,-3.66
6714,950.11,1158.02,1171.72,0.0464,0.0381,1.1997,-0.205,-0.085,0.026,-2.07,1.90,0.1890,-0.6062,0.7847,-2.186,-0.191,1.095,-10.90,-37.56,0.8944,0.1429,0.4468,-3.538,1.945,-7.146,-62.45,15.16,0.42,-3.24,-3.66
6728,1444.91,1643.15,1574.65,0.0452,0.0449,1.2075,0.009,-0.024,0.041,-2.07,1.91,0.1956,-0.6240,0.7878,-1.728,-0.160,0.530,-10.91,-37.60,0.9124,0.1534,0.4453,-3.675,1.304,-8.077,-62.43,15.19,0.42,-3.24,-3.66
6753,1320.81,1196.70,1286.15,0.0459,0.0437,1.1904,1.292,0.312,0.362,-2.06,1.94,0.1907,-0.6094,0.7810,1.280,0.329,0.546,-10.90,-37.58,0.8949,0.1882,0.4447,-3.629,0.357,-5.878,-62.41,15.26,0.42,-3.23,-3.66
6768,889.67,911.43,993.63,0.0405,0.0471,1.2134,0.314,0.068,-0.142,-2.06,1.95,0.1931,-0.6091,0.7917,1.555,-0.282,0.469,-10.90,-37.55,0.9048,0.1791,0.4485,-4.484,0.494,-3.573,-62.39,15.32,0.43,-3.23,-3.65
6782,785.71,892.89,946.08,0.0464,0.0293,1.1926,-1.319,-0.207,-0.173,-2.06,1.92,0.1877,-0.6089,0.7905,-1.086,0.100,0.729,-10.90,-37.57,0.9048,0.1646,0.4509,-5.156,-0.330,-1.726,-62.39,15.34,0.43,-3.22,-3.65
6807,2244.32,2127.47,2041.25,0.0442,0.0432,1.2026,1.353,0.205,0.102,-2.06,1.96,0.1873,-0.6140,0.7683,-1.651,0.130,0.714,-10.89,-37.63,0.8966,0.1387,0.4454,-5.492,-2.529,-2.306,-62.45,15.25,0.43,-3.23,-3.65
6822,1813.19,1647.18,1667.33,0.0461,0.0398,1.1990,-1.090,-0.115,-0.371,-2.07,1.94,0.1833,-0.6074,0.7913,3.540,-0.358,0.072,-10.89,-37.58,0.8918,0.1294,0.4248,-5.293,-2.987,-3.710,-62.52,15.21,0.43,-3.23,-3.66
6846,1072.60,1289.38,1276.48,0.0439,0.0420,1.1978,1.078,0.098,-0.096,-2.06,1.97,0.1912,-0.6023,0.7979,-2.170,0.008,1.584,-10.89,-37.62,0.9009,0.1375,0.3999,-4.225,0.601,-5.451,-62.55,15.18,0.43,-3.24,-3.67
6861,1701.98,1836.56,1755.16,0.0442,0.0396,1.1946,0.330,0.037,0.072,-2.06,1.97,0.1897,-0.6128,0.7771,-2.522,0.023,0.897,-10.88,-37.67,0.9004,0.1414,0.4138,-3.522,2.739,-6.352,-62.54,15.20,0.43,-3.24,-3.68
6875,2189.52,2175.82,2062.20,0.0457,0.0405,1.1978,-1.136,-0.192,-0.005,-2.07,1.96,0.1929,-0.6130,0.7842,0.394,-0.404,0.485,-10.89,-37.67,0.8916,0.1447,0.4342,-2.988,4.189,-6.840,-62.49,15.22,0.44,-3.24,-3.68
6900,839.71,866.30,953.33,0.0432,0.0349,1.1980,0.696,0.037,-0.005,-2.07,1.97,0.1914,-0.6123,0.7910,0.486,-0.129,0.836,-10.89,-37.66,0.8959,0.1598,0.4634,-3.354,2.830,-7.512,-62.39,15.22,0.44,-3.24,-3.68
6915,805.05,969.45,1017.00,0.0435,0.0422,1.2019,0.223,0.083,0.148,-2.07,1.97,0.1921,-0.6116,0.7888,-0.781,0.069,0.653,-10.89,-37.67,0.9001,0.1735,0.4626,-4.041,0.326,-6.810,-62.37,15.27,0.44,-3.23,-3.67
6929,1129.82,1328.06,1328.06,0.0400,0.0366,1.1973,-0.968,-0.146,0.011,-2.07,1.95,0.1860,-0.6089,0.7893,-1.728,-0.236,1.095,-10.89,-37.70,0.9033,0.1812,0.4508,-4.881,-1.185,-4.810,-62.37,15.33,0.44,-3.23,-3.66
6954,1604.47,1470.70,1506.96,0.0444,0.0408,1.2073,1.185,0.129,0.148,-2.06,1.98,0.1873,-0.6155,0.7771,1.204,-0.129,0.378,-10.89,-37.68,0.8997,0.1641,0.4333,-5.400,-2.574,-1.207,-62.44,15.31,0.44,-3.23,-3.67
6969,1083.88,1039.56,1131.43,0.0420,0.0391,1.2083,-1.090,-0.115,-0.203,-2.06,1.96,0.1943,-0.6116,0.8018,2.959,-0.297,-0.447,-10.89,-37.63,0.9093,0.1420,0.4260,-5.263,-1.735,-0.901,-62.49,15.29,0.44,-3.23,-3.67
6994,1818.02,1935.68,1827.69,0.0461,0.0415,1.2009,1.750,0.144,0.148,-2.06,2.01,0.1892,-0.6150,0.7786,-3.575,-0.129,1.385,-10.89,-37.73,0.8956,0.1224,0.4292,-4.408,-0.483,-4.138,-62.52,15.20,0.44,-3.23,-3.67
7008,2232.23,2180.66,2079.93,0.0469,0.0437,1.2034,-0.174,0.007,-0.050,-2.07,2.01,0.1902,-0.6118,0.7793,0.379,-0.129,0.653,-10.90,-37.74,0.8965,0.1287,0.4207,-4.057,1.013,-6.932,-62.54,15.18,0.44,-3.24,-3.68
7033,811.50,878.39,946.08,0.0430,0.0366,1.1943,0.375,0.068,0.072,-2.06,2.01,0.1931,-0.6062,0.7854,0.379,-0.267,0.637,-10.90,-37.73,0.9004,0.1577,0.4244,-3.644,2.540,-8.077,-62.49,15.19,0.44,-3.24,-3.68
7047,887.25,1065.35,1116.12,0.0403,0.0396,1.1982,0.986,0.114,0.011,-2.06,2.02,0.1885,-0.6084,0.7727,-0.430,0.054,0.729,-10.90,-37.74,0.8982,0.1730,0.4335,-3.080,3.136,-7.008,-62.45,15.28,0.44,-3.24,-3.68
7062,1333.70,1520.66,1488.42,0.0391,0.0417,1.1982,-0.770,-0.008,0.026,-2.06,2.01,0.1902,-0.6060,0.7920,-0.293,-0.587,0.424,-10.91,-37.74,0.9045,0.1726,0.4534,-3.889,2.418,-5.191,-62.40,15.34,0.44,-3.24,-3.68
7087,1416.70,1289.38,1361.10,0.0430,0.0359,1.2021,1.001,0.068,0.209,-2.05,2.03,0.1868,-0.6133,0.7847,-0.064,0.023,0.790,-10.90,-37.75,0.8999,0.1594,0.4664,-4.789,-0.452,-3.100,-62.39,15.29,0.44,-3.23,-3.67
7101,995.24,954.14,1046.01,0.0437,0.0420,1.2031,-0.052,-0.085,-0.005,-2.06,2.03,0.1924,-0.6086,0.7979,2.135,-0.252,-0.096,-10.91,-37.71,0.9032,0.1509,0.4556,-5.431,-2.208,-3.176,-62.41,15.27,0.44,-3.23,-3.67
7126,2054.14,2097.66,1988.86,0.0459,0.0352,1.1924,-0.098,0.083,0.041,-2.06,2.02,0.1890,-0.6125,0.7771,-2.857,-0.129,1.324,-10.91,-37.79,0.8999,0.1475,0.4227,-5.186,-2.513,-3.894,-62.50,15.23,0.44,-3.23,-3.67
7141,2230.62,2130.70,2060.59,0.0432,0.0430,1.2021,0.910,0.129,0.240,-2.06,2.03,0.1885,-0.6106,0.7744,-0.659,0.023,0.973,-10.90,-37.81,0.8981,0.1479,0.4137,-4.713,-0.925,-4.046,-62.54,15.25,0.44,-3.24,-3.68
7165,812.31,919.49,992.82,0.0410,0.0378,1.1936,-0.617,-0.100,-0.142,-2.06,2.01,0.1885,-0.6050,0.7876,1.081,-0.160,0.301,-10.91,-37.78,0.9020,0.1431,0.4257,-3.705,2.128,-4.840,-62.51,15.23,0.44,-3.24,-3.68
7180,1045.20,1272.45,1237.00,0.0374,0.0381,1.1931,0.437,0.083,0.087,-2.05,2.02,0.1880,-0.6121,0.7893,-0.842,0.313,0.866,-10.90,-37.79,0.8976,0.1381,0.4408,-3.400,2.800,-5.527,-62.47,15.22,0.44,-3.24,-3.68
7194,1622.20,1800.29,1693.92,0.0476,0.0371,1.2024,0.437,0.114,-0.096,-2.05,2.02,0.1909,-0.6118,0.7842,-0.506,-0.267,0.546,-10.90,-37.80,0.8984,0.1409,0.4514,-3.690,2.021,-6.443,-62.44,15.21,0.44,-3.24,-3.68
7219,1159.63,1100.00,1168.50,0.0439,0.0356,1.1958,-0.571,0.175,0.011,-2.05,2.00,0.1880,-0.6138,0.7861,-0.338,0.054,0.805,-10.89,-37.81,0.9012,0.1625,0.4459,-4.286,0.357,-6.871,-62.42,15.20,0.44,-3.24,-3.68
7233,834.07,880.00,954.14,0.0442,0.0383,1.2009,0.589,-0.039,0.056,-2.05,2.00,0.1892,-0.6165,0.7861,1.372,-0.145,0.301,-10.89,-37.80,0.9073,0.1738,0.4386,-4.347,-0.040,-5.649,-62.43,15.27,0.44,-3.24,-3.68
7248,813.92,941.25,1015.38,0.0449,0.0393,1.1987,0.070,0.007,-0.050,-2.05,2.00,0.1892,-0.6082,0.7937,-0.079,0.054,0.912,-10.89,-37.79,0.8997,0.1782,0.4364,-4.683,-0.071,-3.894,-62.43,15.34,0.44,-3.24,-3.67
7273,2158.90,2000.15,1943.74,0.0444,0.0374,1.1929,-0.205,0.022,-0.035,-2.05,1.99,0.1870,-0.6157,0.7795,-1.071,-0.007,1.004,-10.88,-37.83,0.8971,0.1534,0.4390,-4.851,-0.437,-2.138,-62.44,15.30,0.44,-3.24,-3.67
7287,1610.11,1482.78,1519.85,0.0457,0.0371,1.1931,0.482,0.160,0.133,-2.05,1.99,0.1887,-0.6062,0.7754,1.601,0.023,0.271,-10.88,-37.81,0.8971,0.1368,0.4424,-4.683,-0.773,-2.657,-62.46,15.27,0.44,-3.24,-3.68
7312,1251.50,1456.19,1417.51,0.0378,0.0391,1.1936,-0.510,0.053,0.087,-2.05,1.98,0.1863,-0.6064,0.7859,-0.567,0.130,0.805,-10.87,-37.82,0.9025,0.1313,0.4279,-4.896,-1.017,-4.871,-62.50,15.19,0.44,-3.24,-3.68
7327,1838.17,1960.66,1869.60,0.0413,0.0381,1.1951,0.085,-0.008,-0.066,-2.05,1.98,0.1858,-0.6086,0.7915,-0.522,-0.191,0.775,-10.87,-37.82,0.8969,0.1411,0.4178,-4.362,0.128,-5.772,-62.53,15.20,0.44,-3.25,-3.69
7351,997.66,979.12,1050.04,0.0471,0.0415,1.2009,-0.541,-0.054,-0.112,-2.05,1.96,0.1873,-0.6072,0.7832,-0.399,-0.007,0.897,-10.87,-37.83,0.9022,0.1516,0.4318,-3.507,2.418,-6.214,-62.48,15.20,0.44,-3.25,-3.69
7366,813.11,876.78,967.03,0.0447,0.0369,1.1948,-0.434,-0.085,0.011,-2.05,1.95,0.1899,-0.6042,0.7815,0.532,-0.114,0.408,-10.87,-37.82,0.9001,0.1569,0.4427,-3.568,2.830,-6.214,-62.44,15.23,0.44,-3.25,-3.69
7381,898.53,1091.94,1095.16,0.0444,0.0366,1.1953,0.437,0.037,0.072,-2.06,1.96,0.1931,-0.6072,0.7864,-0.109,-0.129,0.698,-10.87,-37.82,0.9026,0.1581,0.4513,-3.797,1.899,-5.863,-62.41,15.26,0.44,-3.24,-3.69
7405,1959.85,1818.83,1804.32,0.0474,0.0349,1.1995,-0.403,0.037,0.163,-2.06,1.94,0.1887,-0.6128,0.7715,-0.980,0.008,1.095,-10.87,-37.86,0.8987,0.1637,0.4584,-4.652,-0.819,-4.962,-62.41,15.23,0.45,-3.24,-3.69
7420,1389.30,1252.31,1328.06,0.0469,0.0349,1.1987,0.024,0.160,0.102,-2.06,1.94,0.1877,-0.6157,0.7883,1.158,-0.053,0.256,-10.87,-37.84,0.9025,0.1658,0.4417,-5.171,-1.567,-3.741,-62.43,15.27,0.45,-3.24,-3.69
7434,968.64,957.36,1036.34,0.0437,0.0442,1.1975,0.437,0.114,0.133,-2.06,1.95,0.1892,-0.6099,0.7910,0.944,-0.007,0.561,-10.87,-37.82,0.9031,0.1625,0.4336,-5.003,-1.521,-2.932,-62.46,15.30,0.45,-3.24,-3.69
7459,2052.53,2106.52,1984.84,0.0427,0.0405,1.2012,-0.113,-0.008,-0.066,-2.06,1.94,0.1895,-0.6104,0.7808,-1.132,-0.114,1.019,-10.87,-37.86,0.8993,0.1396,0.4288,-4.683,0.036,-2.993,-62.48,15.24,0.45,-3.24,-3.69
7474,2236.26,2118.61,2033.19,0.0430,0.0366,1.1917,0.269,0.083,0.026,-2.06,1.94,0.1934,-0.6064,0.7854,-0.552,-0.191,0.530,-10.87,-37.86,0.8971,0.1311,0.4319,-4.331,0.326,-4.077,-62.49,15.21,0.45,-3.24,-3.69
7499,805.05,915.46,983.15,0.0405,0.0432,1.2000,-0.266,-0.085,0.056,-2.06,1.94,0.1865,-0.6094,0.7888,0.303,0.084,0.622,-10.87,-37.85,0.8951,0.1395,0.4349,-3.828,0.693,-6.520,-62.48,15.17,0.45,-3.25,-3.70
7513,1030.70,1237.00,1235.38,0.0386,0.0371,1.1917,0.024,-0.039,-0.020,-2.05,1.94,0.1897,-0.6067,0.7874,0.303,-0.053,0.683,-10.87,-37.84,0.8994,0.1530,0.4331,-3.629,1.197,-6.947,-62.48,15.21,0.45,-3.25,-3.70
7528,1573.04,1746.30,1666.52,0.0405,0.0369,1.1951,0.314,0.098,-0.035,-2.05,1.94,0.1907,-0.6128,0.7815,-0.980,0.023,0.698,-10.87,-37.86,0.8972,0.1637,0.4338,-3.935,1.273,-6.291,-62.46,15.26,0.45,-3.25,-3.70
7552,1207.18,1129.82,1195.09,0.0452,0.0376,1.1902,-0.312,-0.069,-0.020,-2.05,1.93,0.1882,-0.6116,0.7808,0.303,-0.084,0.546,-10.87,-37.86,0.9027,0.1598,0.4464,-4.438,1.273,-4.352,-62.43,15.24,0.45,-3.24,-3.70
7567,849.38,875.16,954.95,0.0417,0.0388,1.1987,0.345,-0.008,0.026,-2.05,1.93,0.1875,-0.6113,0.7891,0.562,-0.099,0.515,-10.86,-37.85,0.9006,0.1545,0.4484,-4.591,0.189,-3.802,-62.42,15.25,0.46,-3.24,-3.70
7581,793.77,949.30,1005.71,0.0427,0.0420,1.1982,0.238,-0.008,0.011,-2.05,1.93,0.1895,-0.6096,0.7871,-0.415,-0.084,0.698,-10.86,-37.85,0.9000,0.1492,0.4470,-4.927,-0.666,-3.665,-62.43,15.24,0.46,-3.24,-3.70
7606,2174.21,2024.32,1992.89,0.0417,0.0386,1.2009,-0.083,-0.069,-0.096,-2.05,1.93,0.1895,-0.6118,0.7854,-0.522,-0.084,0.714,-10.86,-37.86,0.8973,0.1462,0.4338,-4.774,-1.414,-4.413,-62.47,15.20,0.46,-3.24,-3.70
7621,1654.43,1508.57,1560.15,0.0425,0.0405,1.2007,0.253,0.022,0.041,-2.05,1.93,0.1853,-0.6094,0.7812,-0.155,-0.099,0.668,-10.86,-37.87,0.8988,0.1462,0.4266,-4.484,-0.696,-4.611,-62.50,15.21,0.46,-3.25,-3.70
7646,1070.18,1314.36,1298.24,0.0432,0.0381,1.1987,-0.357,0.007,0.056,-2.05,1.92,0.1926,-0.6067,0.7883,0.181,-0.191,0.653,-10.86,-37.86,0.8989,0.1481,0.4276,-3.996,1.349,-5.100,-62.48,15.19,0.46,-3.25,-3.71
7661,1717.29,1871.21,1778.53,0.0466,0.0383,1.1953,0.192,0.022,-0.081,-2.06,1.92,0.1887,-0.6121,0.7900,-0.415,-0.068,0.683,-10.86,-37.86,0.8998,0.1460,0.4326,-3.690,1.991,-5.604,-62.47,15.20,0.46,-3.25,-3.71
7675,2323.30,2287.03,2157.29,0.0486,0.0405,1.1980,0.208,-0.024,0.041,-2.06,1.93,0.1902,-0.6118,0.7883,-0.628,-0.053,0.821,-10.86,-37.87,0.9008,0.1508,0.4449,-3.919,1.716,-5.939,-62.44,15.22,0.46,-3.25,-3.71
7700,683.37,718.83,849.38,0.0447,0.0388,1.1936,-0.128,-0.008,0.041,-2.06,1.92,0.1946,-0.6089,0.7900,0.227,-0.145,0.759,-10.87,-37.86,0.9019,0.1613,0.4462,-4.255,0.235,-5.817,-62.43,15.21,0.46,-3.24,-3.71
7714,676.12,869.52,937.22,0.0442,0.0386,1.1985,0.299,0.190,0.102,-2.06,1.93,0.1868,-0.6113,0.7808,-0.369,-0.084,0.866,-10.87,-37.87,0.9001,0.1663,0.4456,-4.637,-0.422,-4.978,-62.43,15.25,0.46,-3.24,-3.70
7729,1114.51,1365.93,1357.88,0.0435,0.0376,1.2021,-0.174,0.037,-0.096,-2.06,1.92,0.1887,-0.6121,0.7874,-0.644,-0.023,0.836,-10.86,-37.88,0.9022,0.1648,0.4384,-4.851,-0.880,-3.833,-62.45,15.28,0.46,-3.24,-3.70
7754,1525.49,1367.55,1456.19,0.0442,0.0354,1.2002,0.070,-0.024,0.087,-2.06,1.92,0.1885,-0.6060,0.7886,0.211,-0.282,0.454,-10.87,-37.87,0.9008,0.1519,0.4294,-4.820,-0.605,-2.932,-62.48,15.25,0.46,-3.24,-3.71
7768,946.89,875.97,1017.00,0.0464,0.0398,1.2043,0.223,0.083,0.026,-2.06,1.92,0.1904,-0.6135,0.7905,0.165,-0.053,0.637,-10.87,-37.86,0.9000,0.1376,0.4319,-4.622,-0.162,-3.588,-62.50,15.23,0.47,-3.24,-3.71
7783,649.52,731.72,846.15,0.0432,0.0417,1.2007,-0.098,0.053,-0.035,-2.06,1.92,0.1892,-0.6125,0.7791,-0.231,-0.145,0.714,-10.87,-37.87,0.8965,0.1364,0.4308,-4.347,0.281,-4.703,-62.51,15.22,0.47,-3.25,-3.71
7808,2481.25,2354.73,2204.84,0.0474,0.0422,1.1987,0.299,0.037,0.087,-2.07,1.93,0.1924,-0.6116,0.7864,-0.567,-0.114,0.714,-10.87,-37.89,0.8999,0.1428,0.4319,-3.858,1.151,-6.413,-62.49,15.19,0.47,-3.25,-3.72
7822,2220.95,2000.15,1952.60,0.0474,0.0359,1.1956,-0.144,0.083,0.041,-2.07,1.92,0.1907,-0.6145,0.7827,0.120,-0.145,0.668,-10.87,-37.89,0.9034,0.1556,0.4358,-3.660,1.410,-6.596,-62.48,15.22,0.47,-3.25,-3.72
7837,1525.49,1378.83,1443.30,0.0447,0.0378,1.1963,-0.296,0.022,-0.050,-2.07,1.92,0.1887,-0.6089,0.7864,0.150,-0.175,0.576,-10.87,-37.88,0.9008,0.1598,0.4376,-3.873,1.884,-6.016,-62.46,15.26,0.47,-3.25,-3.72
7862,1376.41,1595.60,1517.44,0.0457,0.0388,1.1953,0.024,0.098,-0.020,-2.07,1.92,0.1851,-0.6143,0.7805,-0.552,-0.053,0.805,-10.87,-37.90,0.9023,0.1658,0.4468,-4.362,0.708,-4.565,-62.43,15.26,0.47,-3.24,-3.71
7876,2007.40,2087.99,1959.85,0.0405,0.0386,1.1943,-0.174,0.037,-0.081,-2.07,1.91,0.1887,-0.6106,0.7834,-0.002,-0.023,0.637,-10.87,-37.90,0.8997,0.1567,0.4493,-4.728,-0.208,-3.924,-62.43,15.27,0.47,-3.24,-3.71
7901,926.74,889.67,1003.30,0.0476,0.0356,1.1995,0.101,0.114,-0.035,-2.07,1.91,0.1897,-0.6113,0.7800,0.059,0.023,0.668,-10.86,-37.91,0.9006,0.1495,0.4395,-5.095,-1.231,-3.756,-62.47,15.22,0.47,-3.24,-3.71
7916,768.79,866.30,932.38,0.0442,0.0400,1.1978,0.024,0.037,-0.035,-2.07,1.91,0.1938,-0.6082,0.7888,-0.430,-0.099,0.805,-10.87,-37.91,0.8988,0.1442,0.4318,-4.759,-1.017,-4.062,-62.49,15.22,0.47,-3.24,-3.71
7930,913.85,1106.45,1130.62,0.0457,0.0364,1.1938,-0.144,0.022,-0.035,-2.07,1.91,0.1899,-0.6079,0.7817,-0.735,-0.114,0.744,-10.87,-37.92,0.9016,0.1472,0.4281,-4.560,-0.269,-4.474,-62.51,15.22,0.47,-3.25,-3.72
7955,1913.11,1755.16,1752.75,0.0471,0.0391,1.1973,0.040,-0.054,-0.020,-2.08,1.91,0.1917,-0.6091,0.7805,0.227,-0.038,0.683,-10.87,-37.91,0.8979,0.1459,0.4272,-3.904,1.105,-5.344,-62.50,15.20,0.47,-3.25,-3.72
7970,1340.15,1212.82,1300.66,0.0427,0.0417,1.1951,0.238,-0.024,0.011,-2.08,1.91,0.1868,-0.6121,0.7800,0.074,0.008,0.637,-10.87,-37.92,0.8973,0.1482,0.4357,-3.858,1.517,-5.649,-62.49,15.22,0.47,-3.25,-3.72
7984,930.77,889.67,1007.33,0.0422,0.0388,1.2017,-0.144,0.037,0.072,-2.07,1.91,0.1931,-0.6074,0.7898,-0.048,-0.206,0.653,-10.87,-37.91,0.9021,0.1520,0.4414,-3.690,1.029,-5.680,-62.48,15.24,0.47,-3.25,-3.72
8009,2127.47,2135.53,2010.62,0.0420,0.0381,1.1997,0.162,0.083,0.194,-2.07,1.91,0.1887,-0.6094,0.7932,-0.155,-0.114,0.530,-10.87,-37.91,0.9021,0.1567,0.4408,-4.072,0.296,-5.222,-62.47,15.23,0.47,-3.25,-3.72
8024,2205.64,2110.55,2042.86,0.0457,0.0391,1.2009,-0.067,-0.008,-0.127,-2.07,1.91,0.1917,-0.6125,0.7856,0.074,-0.114,0.576,-10.87,-37.91,0.9037,0.1560,0.4446,-4.591,0.204,-4.794,-62.47,15.25,0.47,-3.25,-3.72
8038,1892.97,1733.41,1736.63,0.0430,0.0437,1.1995,-0.052,-0.024,-0.066,-2.07,1.91,0.1921,-0.6057,0.7847,-0.002,-0.114,0.637,-10.88,-37.90,0.9012,0.1538,0.4385,-4.576,-0.086,-4.428,-62.48,15.26,0.47,-3.25,-3.72
8063,956.56,1160.44,1175.75,0.0430,0.0396,1.2021,0.223,0.053,0.026,-2.07,1.92,0.1858,-0.6089,0.7854,-0.980,-0.145,0.897,-10.88,-37.92,0.9001,0.1484,0.4346,-4.744,-0.055,-4.245,-62.49,15.22,0.47,-3.25,-3.72
8078,1491.65,1672.16,1611.72,0.0459,0.0383,1.2014,-0.098,0.053,-0.112,-2.07,1.91,0.1917,-0.6108,0.7820,-0.018,-0.129,0.668,-10.88,-37.92,0.9030,0.1489,0.4319,-4.545,-0.300,-4.413,-62.50,15.23,0.47,-3.25,-3.72
8092,2004.18,2050.11,1975.16,0.0444,0.0381,1.1960,-0.083,0.007,0.041,-2.07,1.91,0.1907,-0.6121,0.7834,0.135,-0.038,0.698,-10.88,-37.92,0.8990,0.1470,0.4298,-4.530,0.158,-4.627,-62.52,15.24,0.47,-3.25,-3.73
8117,877.58,882.42,987.99,0.0454,0.0400,1.2090,0.208,-0.024,0.041,-2.08,1.91,0.1895,-0.6145,0.7832,-0.201,-0.099,0.592,-10.88,-37.93,0.9059,0.1484,0.4338,-4.164,0.555,-5.023,-62.52,15.21,0.47,-3.25,-3.73
8132,795.38,929.96,984.76,0.0461,0.0349,1.1980,-0.556,0.037,-0.081,-2.08,1.90,0.1892,-0.6079,0.7888,-0.048,-0.023,0.683,-10.88,-37.93,0.8993,0.1493,0.4366,-3.904,0.830,-5.329,-62.51,15.23,0.47,-3.26,-3.73
8146,980.73,1185.42,1203.96,0.0437,0.0381,1.2036,0.559,-0.039,0.102,-2.08,1.91,0.1936,-0.6147,0.7849,-0.338,0.008,0.790,-10.88,-37.93,0.9030,0.1497,0.4355,-3.950,1.059,-5.451,-62.50,15.24,0.47,-3.26,-3.73
8171,1722.93,1578.68,1611.72,0.0427,0.0417,1.1924,-0.388,0.083,0.041,-2.08,1.90,0.1865,-0.6125,0.7878,0.410,-0.053,0.592,-10.87,-37.92,0.8982,0.1584,0.4458,-4.331,0.983,-5.100,-62.47,15.23,0.47,-3.26,-3.73
8186,1187.84,1120.95,1212.01,0.0439,0.0403,1.1956,-0.098,0.114,0.102,-2.07,1.90,0.1936,-0.6096,0.7886,-0.201,-0.099,0.729,-10.88,-37.92,0.9004,0.1549,0.4427,-4.377,0.296,-4.749,-62.47,15.25,0.47,-3.25,-3.73
8200,869.52,873.55,990.40,0.0408,0.0396,1.1931,0.177,0.022,-0.020,-2.07,1.90,0.1904,-0.6062,0.7876,-0.934,0.054,0.836,-10.88,-37.93,0.9006,0.1547,0.4457,-4.667,-0.406,-4.260,-62.47,15.26,0.47,-3.25,-3.73
8225,2110.55,2124.25,2029.96,0.0415,0.0413,1.1892,-0.266,0.007,-0.050,-2.07,1.90,0.1873,-0.6067,0.7817,-0.002,0.039,0.805,-10.87,-37.93,0.8977,0.1497,0.4347,-4.606,-0.895,-3.970,-62.50,15.22,0.47,-3.26,-3.73
8239,2119.41,2009.01,1970.33,0.0415,0.0391,1.1946,0.131,-0.008,-0.005,-2.07,1.90,0.1885,-0.6143,0.7883,0.028,-0.313,0.576,-10.87,-37.93,0.9005,0.1449,0.4330,-4.591,-0.758,-4.123,-62.53,15.22,0.47,-3.26,-3.73
8264,935.60,1037.14,1070.18,0.0452,0.0393,1.1973,-0.235,0.068,0.056,-2.07,1.89,0.1882,-0.6116,0.7832,-0.354,0.039,0.759,-10.87,-37.94,0.9027,0.1420,0.4297,-4.316,0.937,-4.856,-62.52,15.18,0.47,-3.26,-3.74
8279,1290.99,1455.38,1379.63,0.0452,0.0369,1.1924,0.101,0.068,0.011,-2.07,1.89,0.1895,-0.6123,0.7839,-0.735,-0.038,0.973,-10.87,-37.95,0.8995,0.1466,0.4355,-3.965,1.212,-5.634,-62.51,15.19,0.47,-3.26,-3.74
8293,1826.89,1917.14,1809.16,0.0432,0.0376,1.1953,0.162,0.114,0.011,-2.07,1.89,0.1892,-0.6143,0.7834,-0.125,0.008,0.698,-10.87,-37.95,0.8956,0.1484,0.4386,-3.935,1.349,-5.802,-62.50,15.20,0.48,-3.26,-3.74
8318,1187.84,1072.60,1152.38,0.0410,0.0410,1.1956,-0.052,0.098,0.072,-2.06,1.89,0.1907,-0.6135,0.7876,0.074,-0.099,0.668,-10.87,-37.95,0.9005,0.1589,0.4390,-4.331,0.540,-5.268,-62.49,15.19,0.48,-3.26,-3.74
8333,977.51,979.12,1006.52,0.0422,0.0400,1.1941,0.253,0.098,0.117,-2.06,1.90,0.1853,-0.6091,0.7852,-0.552,-0.068,0.912,-10.86,-37.95,0.9005,0.1625,0.4435,-4.484,0.036,-4.642,-62.48,15.23,0.48,-3.26,-3.74
8347,1017.80,1101.61,1099.19,0.0457,0.0386,1.1951,-0.159,-0.039,0.011,-2.06,1.89,0.1921,-0.6089,0.7910,0.196,-0.114,0.454,-10.86,-37.94,0.9050,0.1531,0.4381,-4.560,0.036,-3.985,-62.49,15.24,0.48,-3.26,-3.74
8372,2087.18,1910.70,1859.93,0.0508,0.0381,1.1958,0.208,-0.039,0.133,-2.07,1.90,0.1958,-0.6128,0.7849,-0.506,0.008,0.775,-10.87,-37.96,0.8943,0.1479,0.4351,-4.408,-0.055,-4.428,-62.50,15.20,0.48,-3.26,-3.74
8387,1458.61,1339.34,1401.39,0.0486,0.0552,1.1892,0.070,0.129,0.530,-2.08,1.91,0.2070,-0.6082,0.7881,0.608,-0.374,0.759,-10.89,-37.94,0.8975,0.1516,0.4268,-3.996,0.250,-6.001,-62.51,15.23,0.47,-3.26,-3.74
8401,1018.61,984.76,1070.99,0.0308,0.0547,1.1990,1.215,-0.024,0.072,-2.06,1.94,0.1836,-0.5957,0.7981,4.059,0.222,0.072,-10.88,-37.86,0.8956,0.1552,0.4458,-3.141,2.891,-4.886,-62.46,15.27,0.47,-3.26,-3.74
8426,1938.10,2013.04,1923.59,0.0332,0.0344,1.1904,-0.999,-0.054,-0.325,-2.06,1.91,0.1785,-0.6108,0.7808,-5.377,-0.389,2.179,-10.88,-37.99,0.8997,0.1406,0.4642,-5.400,-0.773,-3.726,-62.46,15.17,0.47,-3.26,-3.73
8440,2203.22,2128.28,2054.95,0.0403,0.0366,1.1943,1.505,0.205,0.117,-2.05,1.93,0.1846,-0.6189,0.7651,-2.018,-0.007,0.408,-10.87,-38.04,0.8927,0.1372,0.4557,-5.904,-2.987,-3.894,-62.49,15.12,0.47,-3.26,-3.73
8465,794.58,880.81,971.06,0.0422,0.0386,1.1902,-1.396,-0.283,-1.028,-2.06,1.90,0.1938,-0.6030,0.7844,4.165,0.649,-1.576,-10.86,-37.93,0.9053,0.1320,0.4183,-4.499,-3.384,-2.581,-62.61,15.06,0.47,-3.27,-3.74
8480,966.23,1167.69,1159.63,0.0503,0.0298,1.2041,0.467,-0.344,-0.539,-2.07,1.89,0.1865,-0.6062,0.7942,-0.445,-0.801,0.561,-10.87,-37.93,0.8892,0.1252,0.4053,-5.843,-1.399,-4.550,-62.67,15.01,0.47,-3.28,-3.76
8505,1851.06,1707.62,1707.62,0.0603,0.0208,1.1953,-0.693,-0.283,-0.432,-2.09,1.86,0.1931,-0.6350,0.7571,-7.682,-0.282,3.233,-10.88,-38.15,0.8942,0.1447,0.4039,-3.080,2.784,-10.275,-62.63,15.03,0.47,-3.29,-3.77
8519,1315.97,1199.12,1268.42,0.0469,0.0347,1.2004,2.513,0.129,0.713,-2.09,1.89,0.1863,-0.6313,0.7527,4.120,-0.038,-0.554,-10.87,-38.13,0.9131,0.1741,0.4104,-3.354,4.647,-11.023,-62.59,15.15,0.48,-3.29,-3.77
8544,1641.54,1794.65,1714.87,0.0605,0.0303,1.2183,-0.312,0.129,-0.218,-2.11,1.87,0.2014,-0.6072,0.8223,3.830,0.054,-1.149,-10.88,-38.01,0.9041,0.1993,0.4642,-3.354,5.975,-5.817,-62.41,15.23,0.48,-3.28,-3.76
8558,2164.54,2153.26,2050.11,0.0498,0.0107,1.1965,-2.128,0.358,0.209,-2.11,1.82,0.1943,-0.6089,0.7905,-8.964,-0.679,4.912,-10.89,-38.12,0.9114,0.1851,0.4767,-4.454,4.357,-4.230,-62.32,15.28,0.48,-3.27,-3.75
8583,847.77,876.78,951.72,0.0286,0.0649,1.2295,2.482,0.251,0.117,-2.08,1.90,0.1721,-0.6323,0.7717,5.875,-0.450,-1.744,-10.88,-38.01,0.9121,0.1506,0.4912,-8.301,-4.987,1.862,-62.40,15.12,0.48,-3.26,-3.74
8598,817.14,979.12,1001.68,0.0342,0.0300,1.1892,-5.838,-0.756,-0.860,-2.09,1.81,0.1768,-0.5869,0.8281,12.623,0.939,-2.050,-10.85,-37.77,0.8932,0.1292,0.4451,-4.087,-6.177,2.259,-62.50,15.08,0.48,-3.26,-3.74
8612,1119.34,1317.58,1320.00,0.0413,0.0459,1.1768,1.734,0.007,0.087,-2.08,1.84,0.1946,-0.5776,0.8066,-3.850,-0.481,2.027,-10.86,-37.79,0.8800,0.1027,0.4177,-7.446,-6.422,0.702,-62.62,14.95,0.48,-3.27,-3.75
8637,1563.37,1454.58,1497.29,0.0593,0.0437,1.2002,-3.823,-0.482,-0.402,-2.11,1.76,0.1960,-0.6282,0.7598,-5.209,0.069,2.027,-10.86,-37.95,0.8978,0.1035,0.3683,-3.721,1.136,-6.489,-62.68,14.87,0.49,-3.28,-3.76
8651,1083.08,1033.11,1117.73,0.0574,0.0305,1.1858,-2.083,-0.115,0.072,-2.13,1.72,0.1975,-0.6191,0.7754,3.020,-0.282,-0.920,-10.88,-37.92,0.8960,0.1321,0.3817,-1.797,6.418,-12.291,-62.65,14.93,0.49,-3.28,-3.77
8676,1819.63,1944.54,1849.45,0.0454,0.0442,1.2085,1.307,0.419,0.530,-2.12,1.76,0.1824,-0.5964,0.7981,5.127,-0.084,0.439,-10.87,-37.77,0.8954,0.1924,0.4631,-0.469,9.441,-11.909,-62.38,15.07,0.49,-3.27,-3.76
8691,2187.91,2154.07,2050.92,0.0405,0.0330,1.1963,-3.121,-0.161,-0.081,-2.11,1.71,0.2000,-0.6023,0.8083,-5.086,-0.862,0.958,-10.89,-37.82,0.9117,0.1987,0.5007,-2.805,7.304,-7.436,-62.22,15.16,0.49,-3.25,-3.74
8715,813.11,882.42,942.05,0.0359,0.0427,1.2029,2.681,0.404,0.408,-2.10,1.78,0.1809,-0.6343,0.7478,0.501,-0.023,-0.584,-10.88,-37.86,0.9183,0.1909,0.5096,-6.805,-4.391,-0.474,-62.26,15.11,0.49,-3.23,-3.72
8730,921.10,1114.51,1132.23,0.0413,0.0393,1.2036,-0.312,-0.024,-0.264,-2.09,1.78,0.1853,-0.6011,0.8040,11.509,-0.114,-1.256,-10.87,-37.67,0.9027,0.1691,0.4692,-6.805,-8.956,1.725,-62.37,15.10,0.49,-3.22,-3.72
8745,1420.73,1600.44,1535.97,0.0435,0.0273,1.2004,-2.495,-0.176,-0.432,-2.10,1.73,0.1980,-0.5957,0.8098,-0.369,0.100,0.637,-10.88,-37.65,0.8989,0.1467,0.4135,-8.377,-10.529,3.068,-62.55,15.07,0.49,-3.23,-3.72
8769,1387.69,1269.23,1339.34,0.0442,0.0493,1.2075,3.124,0.236,0.316,-2.09,1.82,0.1899,-0.6250,0.7632,-4.140,0.039,1.263,-10.88,-37.79,0.8877,0.1110,0.3553,-5.400,-2.483,-0.581,-62.70,14.99,0.49,-3.24,-3.74
8784,987.99,930.77,1021.03,0.0417,0.0432,1.2019,-2.006,-0.192,-0.020,-2.09,1.80,0.1917,-0.6116,0.7820,4.623,-0.694,-0.386,-10.89,-37.73,0.9014,0.0890,0.3718,-3.018,4.220,-4.627,-62.73,14.91,0.49,-3.26,-3.75
8799,816.34,896.12,967.84,0.0422,0.0356,1.1897,-1.228,-0.192,0.026,-2.09,1.78,0.1931,-0.5986,0.7949,4.990,0.695,0.011,-10.88,-37.64,0.8785,0.0916,0.4077,-2.164,8.449,-8.245,-62.65,14.84,0.49,-3.27,-3.76
8823,2208.06,2117.80,2019.49,0.0359,0.0498,1.2051,0.528,-0.039,-0.142,-2.09,1.80,0.2078,-0.6001,0.8081,-3.819,-0.710,-0.126,-10.91,-37.71,0.8944,0.1373,0.4756,-1.935,7.960,-13.909,-62.42,14.82,0.49,-3.26,-3.75
8838,1843.81,1689.08,1711.65,0.0454,0.0398,1.1887,-3.243,-0.253,-0.356,-2.09,1.76,0.1841,-0.6182,0.7781,-8.522,0.176,3.126,-10.90,-37.85,0.9010,0.1849,0.4858,-2.301,3.914,-13.863,-62.32,14.90,0.49,-3.25,-3.74
8862,1066.15,1237.00,1266.01,0.0413,0.0488,1.1965,2.314,0.205,0.209,-2.08,1.83,0.1902,-0.6062,0.7864,8.944,-0.160,-1.118,-10.90,-37.63,0.9099,0.2352,0.4697,-4.942,-1.689,-5.481,-62.31,15.02,0.49,-3.24,-3.72
8877,1629.45,1779.34,1713.26,0.0415,0.0427,1.1995,-1.884,-0.237,-0.066,-2.09,1.81,0.1926,-0.5925,0.8115,2.685,-0.252,-0.370,-10.91,-37.56,0.9143,0.2236,0.4606,-6.164,-3.811,0.274,-62.34,15.15,0.48,-3.23,-3.71
8902,1195.09,1120.15,1200.73,0.0371,0.0320,1.1956,2.055,0.007,0.285,-2.08,1.85,0.1804,-0.6274,0.7598,-7.346,0.039,1.996,-10.89,-37.78,0.8959,0.1455,0.4392,-6.942,-5.887,5.114,-62.49,15.04,0.48,-3.23,-3.71
8917,893.70,894.51,992.82,0.0383,0.0400,1.2034,0.879,0.144,0.133,-2.07,1.86,0.1846,-0.6226,0.7654,4.028,-0.664,-0.309,-10.90,-37.75,0.8973,0.0985,0.4238,-6.041,-5.780,2.534,-62.60,14.92,0.48,-3.24,-3.72
8931,850.18,952.53,1003.30,0.0452,0.0242,1.1970,-2.266,-0.207,-0.325,-2.08,1.82,0.1897,-0.6113,0.7917,5.463,0.420,-0.370,-10.89,-37.67,0.8899,0.0814,0.3982,-5.705,-3.979,-2.520,-62.72,14.77,0.48,-3.26,-3.74
8956,2183.08,2051.72,2000.15,0.0430,0.0422,1.1987,2.391,0.297,0.163,-2.07,1.88,0.1929,-0.6047,0.7886,-3.025,-0.175,0.866,-10.90,-37.74,0.8989,0.1128,0.3763,-2.896,3.685,-10.459,-62.70,14.73,0.48,-3.27,-3.75
8971,1691.50,1552.09,1598.02,0.0432,0.0435,1.2009,-0.922,0.037,-0.341,-2.07,1.87,0.1868,-0.6160,0.7778,-5.575,-0.252,2.088,-10.89,-37.83,0.9010,0.1447,0.3928,-1.690,7.838,-12.367,-62.64,14.82,0.48,-3.28,-3.76
8995,1173.33,1367.55,1344.98,0.0454,0.0364,1.1968,0.818,0.144,0.102,-2.07,1.89,0.1877,-0.6094,0.7810,6.944,0.191,-0.263,-10.89,-37.66,0.8998,0.1874,0.4777,-1.782,8.983,-10.504,-62.37,14.91,0.48,-3.27,-3.75
9010,1765.64,1901.03,1809.16,0.0422,0.0454,1.1965,1.093,0.098,0.133,-2.06,1.91,0.1938,-0.5884,0.8154,4.425,-0.252,-0.721,-10.89,-37.56,0.9012,0.1968,0.5052,-2.728,4.601,-7.451,-62.24,15.00,0.47,-3.25,-3.73
9025,2202.42,2176.63,2062.20,0.0442,0.0432,1.1948,-1.319,-0.069,-0.096,-2.07,1.89,0.1880,-0.6018,0.7864,-7.468,-0.145,2.851,-10.89,-37.67,0.8961,0.2007,0.5109,-4.957,-1.277,-3.878,-62.18,15.06,0.47,-3.23,-3.70
9049,845.35,888.86,965.42,0.0447,0.0413,1.1963,1.185,0.144,0.270,-2.06,1.92,0.1912,-0.6194,0.7739,2.761,-0.542,-0.157,-10.90,-37.62,0.9065,0.1797,0.4552,-7.217,-8.284,1.144,-62.37,15.01,0.47,-3.23,-3.70
9064,860.66,1008.13,1045.20,0.0464,0.0386,1.2012,0.116,0.022,0.133,-2.07,1.92,0.1968,-0.6079,0.7947,5.188,0.298,-0.325,-10.90,-37.54,0.9022,0.1511,0.4093,-7.141,-8.208,2.442,-62.53,15.01,0.47,-3.23,-3.70
9078,1224.91,1408.64,1365.13,0.0461,0.0315,1.1953,-1.502,-0.054,-0.066,-2.07,1.89,0.1929,-0.6084,0.7922,-0.476,-0.145,1.126,-10.91,-37.55,0.9006,0.1283,0.3831,-5.935,-4.819,1.297,-62.66,15.00,0.47,-3.25,-3.71
9103,1541.61,1407.84,1449.74,0.0430,0.0366,1.2043,1.246,0.175,0.255,-2.07,1.92,0.1890,-0.6167,0.7781,-4.186,-0.282,1.782,-10.91,-37.67,0.8949,0.0942,0.3865,-3.370,2.510,-4.901,-62.67,14.89,0.46,-3.26,-3.72
9118,1083.08,1014.58,1113.70,0.0386,0.0439,1.1982,-0.510,0.068,0.179,-2.06,1.92,0.1897,-0.6199,0.7649,0.593,-0.068,0.714,-10.91,-37.69,0.8936,0.1066,0.4083,-2.454,5.410,-8.703,-62.63,14.85,0.46,-3.27,-3.73
9133,843.74,876.78,958.97,0.0327,0.0393,1.1919,0.009,0.098,0.117,-2.05,1.92,0.1782,-0.5999,0.7905,7.692,0.161,-0.599,-10.89,-37.56,0.8993,0.1298,0.4366,-2.041,6.937,-10.947,-62.54,14.85,0.46,-3.27,-3.73
9157,2218.53,2182.27,2062.20,0.0413,0.0488,1.2017,0.406,0.083,-0.264,-2.05,1.93,0.1936,-0.5950,0.8032,-6.247,0.069,1.935,-10.89,-37.70,0.8945,0.1700,0.4745,-2.973,4.678,-9.955,-62.39,14.88,0.46,-3.27,-3.73
9172,2050.11,1908.28,1878.46,0.0491,0.0381,1.1985,-0.876,-0.069,-0.279,-2.05,1.92,0.1899,-0.6228,0.7622,-7.804,-0.038,2.057,-10.89,-37.84,0.9016,0.1879,0.4796,-3.186,0.922,-7.817,-62.33,14.96,0.46,-3.26,-3.71
9197,907.40,1094.36,1100.00,0.0447,0.0439,1.2046,0.986,0.221,0.117,-2.05,1.95,0.1924,-0.6091,0.7913,7.036,0.023,-0.767,-10.89,-37.66,0.9138,0.2015,0.4540,-5.278,-2.880,-2.962,-62.39,15.02,0.45,-3.25,-3.71
9211,1375.60,1556.12,1508.57,0.0464,0.0425,1.1980,-0.189,-0.039,0.102,-2.05,1.95,0.1890,-0.5935,0.7930,2.135,0.054,0.759,-10.89,-37.61,0.9069,0.1812,0.4402,-5.812,-3.109,0.564,-62.43,15.08,0.45,-3.25,-3.70
9226,1931.65,2027.55,1909.08,0.0417,0.0369,1.1970,-0.388,-0.008,-0.218,-2.05,1.94,0.1853,-0.6021,0.7817,-3.957,-0.145,1.172,-10.89,-37.67,0.9001,0.1521,0.4359,-5.614,-3.185,2.244,-62.48,15.08,0.45,-3.25,-3.70
9251,998.46,970.26,1041.17,0.0383,0.0408,1.1970,0.559,-0.115,-0.050,-2.05,1.95,0.1858,-0.6172,0.7688,-1.957,-0.129,0.866,-10.89,-37.74,0.8862,0.0958,0.4244,-4.957,-2.788,-1.207,-62.58,14.91,0.45,-3.26,-3.71
9265,836.48,904.98,963.00,0.0427,0.0388,1.1970,-0.953,-0.268,-0.173,-2.05,1.94,0.1851,-0.6082,0.7742,4.700,-0.023,-0.355,-10.88,-37.68,0.8982,0.0900,0.4045,-5.293,-2.361,-5.130,-62.66,14.79,0.45,-3.27,-3.72
9280,929.16,1117.73,1117.73,0.0437,0.0330,1.1997,-0.113,-0.207,-0.066,-2.06,1.93,0.1985,-0.6035,0.8037,3.753,-0.465,-0.783,-10.90,-37.61,0.8904,0.1112,0.3978,-3.278,0.784,-9.924,-62.70,14.76,0.45,-3.29,-3.74
9305,1926.01,1769.67,1779.34,0.0403,0.0415,1.1995,0.177,-0.237,0.163,-2.06,1.93,0.1851,-0.6184,0.7756,-6.857,-0.282,2.118,-10.90,-37.80,0.9033,0.1694,0.4016,-1.858,6.968,-11.558,-62.56,14.88,0.45,-3.29,-3.74
9319,1352.23,1258.75,1319.19,0.0449,0.0374,1.2009,-0.785,-0.253,0.026,-2.07,1.92,0.1897,-0.6216,0.7646,1.555,-0.435,0.347,-10.90,-37.80,0.9108,0.1888,0.4434,-2.041,8.204,-9.390,-62.44,15.01,0.45,-3.29,-3.74
9344,1551.28,1731.79,1645.57,0.0391,0.0449,1.1980,0.543,-0.115,0.133,-2.06,1.94,0.1892,-0.6001,0.8076,2.333,-0.084,0.317,-10.90,-37.72,0.9045,0.1814,0.5015,-3.828,3.365,-4.688,-62.30,15.02,0.45,-3.27,-3.72
9358,2109.74,2142.78,2041.25,0.0442,0.0432,1.1990,-0.235,-0.115,-0.142,-2.07,1.93,0.1902,-0.6042,0.7803,-4.155,-0.023,1.385,-10.90,-37.78,0.8936,0.1716,0.5104,-5.247,-2.376,-2.474,-62.26,15.01,0.45,-3.26,-3.70
9383,881.61,886.45,971.87,0.0510,0.0366,1.1948,0.055,-0.039,-0.218,-2.08,1.93,0.1951,-0.6204,0.7808,-1.224,-0.068,0.576,-10.90,-37.82,0.9016,0.1577,0.4445,-6.484,-8.269,-1.222,-62.47,14.95,0.45,-3.25,-3.70
9398,812.31,933.99,979.12,0.0515,0.0378,1.1985,-0.327,-0.008,-0.035,-2.08,1.93,0.1951,-0.6221,0.7783,2.242,0.145,0.530,-10.91,-37.81,0.9092,0.1528,0.3936,-6.805,-6.300,-2.092,-62.61,14.98,0.45,-3.26,-3.71
9412,1027.47,1237.00,1227.33,0.0483,0.0310,1.1943,0.009,0.236,0.240,-2.08,1.92,0.1895,-0.6079,0.7896,2.852,0.115,0.042,-10.90,-37.76,0.9020,0.1521,0.3752,-4.469,-2.116,-2.321,-62.70,15.05,0.45,-3.28,-3.73
9437,1796.26,1638.32,1683.44,0.0396,0.0369,1.1948,-0.037,0.068,0.072,-2.08,1.91,0.1816,-0.6116,0.7854,-3.911,-0.114,1.813,-10.89,-37.86,0.8972,0.1206,0.4111,-2.713,5.136,-3.817,-62.61,15.01,0.45,-3.28,-3.73
9452,1237.00,1146.74,1224.91,0.0356,0.0339,1.1943,-0.449,-0.039,-0.142,-2.07,1.90,0.1824,-0.6160,0.7791,0.410,0.023,0.698,-10.88,-37.87,0.8914,0.1078,0.4441,-2.942,5.487,-5.481,-62.54,14.94,0.45,-3.29,-3.74
9477,1659.27,1810.77,1741.47,0.0461,0.0405,1.1980,0.223,0.037,0.102,-2.07,1.91,0.1965,-0.6021,0.7954,1.921,0.023,-0.019,-10.89,-37.80,0.8916,0.1368,0.4703,-2.744,1.273,-9.802,-62.48,14.90,0.45,-3.28,-3.74
9491,2166.96,2170.18,2089.60,0.0457,0.0437,1.1968,-0.144,-0.008,-0.020,-2.08,1.91,0.1873,-0.6099,0.7793,-2.644,0.069,1.401,-10.88,-37.85,0.9038,0.1709,0.4489,-4.469,-0.055,-10.352,-62.47,14.96,0.45,-3.28,-3.73
9516,821.98,842.93,950.92,0.0479,0.0420,1.1968,0.284,-0.054,0.011,-2.08,1.92,0.1929,-0.6118,0.7783,0.211,-0.206,0.683,-10.89,-37.85,0.9103,0.2032,0.4259,-4.683,0.907,-4.504,-62.46,15.05,0.46,-3.28,-3.73
9531,781.68,951.72,1009.74,0.0432,0.0439,1.2024,0.116,0.053,-0.081,-2.08,1.92,0.1907,-0.6082,0.7876,2.135,0.008,0.332,-10.89,-37.81,0.9078,0.1885,0.4443,-5.171,1.609,-0.764,-62.42,15.14,0.46,-3.27,-3.73
9545,1100.81,1349.01,1336.92,0.0425,0.0444,1.2043,0.070,0.037,0.011,-2.08,1.93,0.1917,-0.6008,0.7964,1.188,-0.114,0.500,-10.89,-37.78,0.8900,0.1438,0.4661,-4.316,0.586,0.793,-62.39,15.12,0.46,-3.26,-3.72
9570,1533.55,1426.37,1472.31,0.0430,0.0391,1.1902,0.101,0.068,0.133,-2.08,1.93,0.1924,-0.6099,0.7834,-3.835,-0.206,1.492,-10.90,-37.88,0.8848,0.1116,0.4624,-5.247,-3.857,-2.794,-62.47,14.96,0.46,-3.26,-3.72
9584,1170.11,1093.55,1157.22,0.0388,0.0391,1.2012,0.116,-0.008,0.026,-2.07,1.93,0.1897,-0.6179,0.7683,-1.071,-0.007,0.943,-10.90,-37.91,0.8997,0.1195,0.4221,-5.568,-4.620,-6.046,-62.57,14.90,0.46,-3.26,-3.72
9609,1863.96,1971.94,1893.77,0.0437,0.0305,1.1990,-0.205,-0.085,-0.157,-2.07,1.91,0.1899,-0.6057,0.7935,2.333,-0.099,-0.096,-10.90,-37.84,0.9067,0.1577,0.3824,-4.011,0.601,-7.146,-62.61,14.95,0.46,-3.27,-3.73
9624,2150.04,2109.74,2053.33,0.0393,0.0383,1.2021,-0.098,0.007,-0.020,-2.07,1.91,0.1868,-0.6140,0.7830,-2.689,-0.053,1.294,-10.89,-37.89,0.9094,0.1646,0.3916,-3.217,4.189,-5.848,-62.60,15.06,0.46,-3.28,-3.74
9648,783.30,892.89,971.06,0.0403,0.0359,1.2014,-0.144,0.068,-0.050,-2.07,1.90,0.1873,-0.6230,0.7761,-0.277,-0.221,0.729,-10.89,-37.91,0.8995,0.1460,0.4609,-2.927,5.624,-5.573,-62.45,15.04,0.46,-3.28,-3.73
9663,942.05,1132.23,1152.38,0.0422,0.0435,1.2017,0.284,0.205,0.041,-2.06,1.91,0.1921,-0.6135,0.7883,2.532,-0.099,0.164,-10.90,-37.87,0.9034,0.1440,0.4797,-3.644,2.296,-6.214,-62.38,15.02,0.46,-3.27,-3.72
9678,1392.53,1560.95,1521.47,0.0417,0.0364,1.1973,0.253,0.098,0.072,-2.06,1.91,0.1860,-0.6079,0.7949,1.097,-0.038,0.668,-10.89,-37.85,0.8932,0.1587,0.4786,-4.606,-1.750,-6.886,-62.37,15.02,0.45,-3.26,-3.71
9703,1383.66,1276.48,1345.79,0.0439,0.0454,1.1948,0.040,0.114,0.026,-2.06,1.92,0.1865,-0.6045,0.7747,-2.354,-0.191,1.248,-10.89,-37.91,0.9016,0.1807,0.4253,-5.904,-3.246,-3.863,-62.46,15.04,0.45,-3.26,-3.71
9717,1002.49,975.09,1062.12,0.0425,0.0442,1.1938,0.024,0.007,-0.035,-2.06,1.92,0.1914,-0.6125,0.7766,-0.720,-0.084,0.912,-10.89,-37.93,0.9022,0.1737,0.4124,-4.744,-1.414,-1.375,-62.51,15.13,0.45,-3.26,-3.71
9742,2114.58,2142.78,2017.88,0.0481,0.0403,1.2019,-0.174,-0.069,-0.112,-2.06,1.92,0.1904,-0.5984,0.7961,2.272,0.054,0.072,-10.89,-37.85,0.8981,0.1270,0.4366,-4.255,1.838,-1.665,-62.47,15.05,0.45,-3.26,-3.71
9756,2370.84,2230.62,2109.74,0.0442,0.0417,1.2043,0.101,0.068,0.041,-2.06,1.92,0.1985,-0.6072,0.7935,-1.850,-0.206,0.958,-10.90,-37.87,0.8931,0.1068,0.4531,-4.026,0.968,-4.336,-62.46,14.95,0.45,-3.26,-3.71
9771,1939.71,1750.33,1739.05,0.0464,0.0381,1.1948,-0.113,-0.008,0.041,-2.07,1.92,0.1877,-0.6172,0.7793,-3.315,-0.129,1.492,-10.90,-37.93,0.8954,0.1185,0.4506,-4.225,0.464,-7.665,-62.45,14.89,0.45,-3.26,-3.71
9796,1005.71,1185.42,1199.12,0.0405,0.0405,1.1987,-0.128,-0.100,-0.020,-2.07,1.91,0.1897,-0.6150,0.7903,2.135,-0.084,0.072,-10.90,-37.87,0.9102,0.1685,0.4225,-4.347,0.326,-8.978,-62.47,14.92,0.45,-3.26,-3.71
9811,1491.65,1663.30,1611.72,0.0398,0.0327,1.1904,-0.174,-0.008,-0.005,-2.06,1.91,0.1843,-0.6074,0.7898,0.761,0.069,0.683,-10.89,-37.86,0.9062,0.1898,0.4204,-3.522,1.578,-6.520,-62.45,15.06,0.45,-3.25,-3.71
9825,1993.70,2078.31,1977.58,0.0410,0.0330,1.1943,0.192,0.068,0.072,-2.06,1.90,0.1887,-0.6062,0.7742,-1.636,-0.313,1.004,-10.89,-37.88,0.9075,0.1829,0.4331,-4.179,2.235,-3.420,-62.43,15.15,0.45,-3.25,-3.70
9850,942.05,904.98,1000.88,0.0457,0.0312,1.1948,-0.449,-0.039,-0.142,-2.06,1.88,0.1858,-0.6150,0.7820,-0.293,-0.038,0.790,-10.89,-37.90,0.8940,0.1416,0.4581,-5.003,0.021,-1.420,-62.41,15.07,0.45,-3.25,-3.70
9865,804.25,896.92,956.56,0.0437,0.0425,1.2029,0.360,0.083,0.072,-2.06,1.89,0.1858,-0.6099,0.7825,1.921,0.084,0.240,-10.88,-37.87,0.8977,0.1295,0.4548,-5.309,-2.284,-2.932,-62.44,15.01,0.45,-3.24,-3.70
9879,971.87,1166.08,1173.33,0.0417,0.0432,1.2026,0.452,0.221,0.041,-2.06,1.90,0.1897,-0.6067,0.8000,1.860,-0.068,0.301,-10.88,-37.83,0.8942,0.1304,0.4342,-5.324,-3.200,-4.825,-62.50,14.97,0.45,-3.25,-3.70
9904,1819.63,1672.97,1693.92,0.0444,0.0437,1.1990,0.391,0.098,0.056,-2.06,1.91,0.1919,-0.6096,0.7842,-2.888,-0.114,1.446,-10.88,-37.90,0.9010,0.1505,0.4066,-4.301,0.036,-5.939,-62.54,14.97,0.45,-3.25,-3.71
9919,1268.42,1161.25,1235.38,0.0435,0.0430,1.1948,0.223,0.068,0.148,-2.06,1.92,0.1877,-0.6121,0.7744,0.089,-0.221,0.607,-10.88,-37.91,0.9015,0.1548,0.4127,-3.141,3.181,-5.833,-62.52,15.04,0.45,-3.26,-3.71
9933,900.95,892.09,979.93,0.0444,0.0457,1.1941,-0.312,-0.161,-0.005,-2.06,1.92,0.1924,-0.6069,0.7859,2.425,-0.053,0.210,-10.88,-37.87,0.8972,0.1531,0.4341,-3.186,4.555,-5.191,-62.46,15.08,0.45,-3.26,-3.71
9958,2157.29,2166.15,2039.63,0.0422,0.0396,1.1987,0.024,0.022,-0.081,-2.06,1.92,0.1887,-0.6060,0.7908,-1.606,-0.145,0.897,-10.88,-37.90,0.8978,0.1455,0.4740,-3.996,1.639,-5.756,-62.39,15.02,0.45,-3.25,-3.70
9972,2183.08,2051.72,2004.18,0.0417,0.0413,1.2041,-0.098,-0.024,-0.081,-2.06,1.92,0.1890,-0.6138,0.7791,-1.972,-0.053,1.019,-10.88,-37.93,0.8999,0.1542,0.4702,-4.606,-1.017,-6.031,-62.38,15.02,0.45,-3.24,-3.70
9997,820.37,958.17,1006.52,0.0417,0.0374,1.1987,-0.052,0.022,-0.005,-2.06,1.92,0.1865,-0.6133,0.7798,0.822,0.084,0.653,-10.88,-37.92,0.9105,0.1719,0.4280,-5.339,-2.925,-4.489,-62.47,15.03,0.45,-3.24,-3.70
10012,1173.33,1378.02,1335.31,0.0422,0.0332,1.1970,0.208,0.098,0.011,-2.05,1.91,0.1895,-0.6116,0.7781,1.249,-0.068,0.454,-10.88,-37.91,0.9076,0.1710,0.4130,-5.339,-1.567,-2.886,-62.52,15.10,0.45,-3.25,-3.70
10026,1739.05,1867.99,1802.71,0.0425,0.0364,1.1917,-0.235,0.068,0.041,-2.05,1.91,0.1890,-0.6072,0.7832,-1.071,-0.206,0.729,-10.88,-37.92,0.9062,0.1532,0.4166,-4.622,0.372,-1.787,-62.54,15.14,0.45,-3.25,-3.71
10051,1108.06,1044.40,1147.55,0.0439,0.0364,1.1958,0.162,-0.008,-0.020,-2.05,1.91,0.1841,-0.6145,0.7710,-0.262,-0.099,0.607,-10.87,-37.94,0.8949,0.1228,0.4395,-4.179,1.105,-3.436,-62.52,15.05,0.45,-3.26,-3.71
10066,838.10,872.75,951.72,0.0383,0.0403,1.1985,0.055,-0.115,-0.112,-2.05,1.91,0.1890,-0.6021,0.7954,2.410,-0.084,0.042,-10.87,-37.89,0.8929,0.1228,0.4414,-4.225,0.540,-5.695,-62.52,14.99,0.45,-3.26,-3.72
10090,2227.40,2183.08,2093.63,0.0415,0.0437,1.1951,-0.144,-0.008,-0.081,-2.05,1.91,0.1917,-0.6035,0.7844,-1.377,-0.206,0.759,-10.88,-37.91,0.8998,0.1482,0.4297,-3.873,0.220,-7.955,-62.53,14.98,0.45,-3.27,-3.72
10105,2062.20,1928.42,1895.38,0.0481,0.0410,1.2002,0.192,-0.039,-0.020,-2.06,1.91,0.1877,-0.6108,0.7834,-1.911,-0.129,1.050,-10.88,-37.94,0.9045,0.1663,0.4307,-3.858,1.639,-7.405,-62.51,15.05,0.45,-3.27,-3.72
10130,889.67,1054.87,1086.30,0.0439,0.0427,1.2017,-0.021,-0.054,0.117,-2.06,1.91,0.1934,-0.6082,0.7798,0.685,0.008,0.653,-10.88,-37.93,0.8997,0.1704,0.4479,-3.614,2.693,-5.115,-62.44,15.08,0.45,-3.27,-3.72
10144,1312.75,1523.88,1469.08,0.0449,0.0413,1.1917,0.055,0.037,-0.050,-2.06,1.92,0.1919,-0.6062,0.7864,0.791,-0.068,0.622,-10.88,-37.91,0.9010,0.1643,0.4617,-4.026,1.380,-3.909,-62.40,15.11,0.45,-3.26,-3.71
10159,1895.38,2004.18,1897.80,0.0427,0.0359,1.1973,-0.006,-0.100,-0.005,-2.06,1.91,0.1924,-0.6082,0.7898,-0.613,-0.221,0.744,-10.89,-37.91,0.9009,0.1516,0.4617,-4.881,-0.651,-3.420,-62.39,15.10,0.45,-3.25,-3.71
10184,991.21,952.53,1032.31,0.0439,0.0391,1.1990,-0.037,0.251,-0.035,-2.05,1.91,0.1907,-0.6143,0.7825,-0.980,-0.114,0.973,-10.89,-37.94,0.9020,0.1478,0.4347,-5.507,-3.506,-3.420,-62.49,15.04,0.45,-3.26,-3.71
10198,803.44,875.16,939.63,0.0435,0.0376,1.1980,0.024,0.129,-0.142,-2.05,1.91,0.1838,-0.6130,0.7871,1.509,-0.068,0.363,-10.88,-37.92,0.9048,0.1508,0.4172,-5.202,-2.498,-3.375,-62.55,15.06,0.45,-3.26,-3.71
10213,913.04,1095.97,1093.55,0.0415,0.0378,1.2029,-0.128,0.053,-0.050,-2.05,1.90,0.1897,-0.6128,0.7808,0.944,-0.175,0.317,-10.88,-37.91,0.9043,0.1451,0.4031,-4.805,-0.803,-3.634,-62.61,15.09,0.45,-3.27,-3.72
10238,1980.81,1840.59,1834.95,0.0469,0.0354,1.2017,0.177,0.053,-0.005,-2.05,1.90,0.1892,-0.6138,0.7742,-1.850,-0.007,1.156,-10.88,-37.96,0.8971,0.1364,0.4209,-3.553,2.555,-5.344,-62.57,15.06,0.45,-3.28,-3.73
10252,1407.84,1291.79,1370.77,0.0435,0.0388,1.1990,0.146,0.037,0.041,-2.05,1.91,0.1897,-0.6094,0.7764,0.333,-0.206,0.424,-10.88,-37.96,0.8983,0.1404,0.4391,-3.217,3.029,-6.596,-62.53,15.07,0.45,-3.28,-3.73
10277,1472.31,1637.51,1593.99,0.0420,0.0398,1.1946,0.024,0.037,0.041,-2.05,1.91,0.1838,-0.6099,0.7815,0.975,-0.145,0.469,-10.88,-37.94,0.8990,0.1576,0.4518,-3.873,1.334,-7.100,-62.49,15.06,0.45,-3.28,-3.73
10292,2050.11,2104.10,1996.12,0.0430,0.0442,1.1990,0.162,-0.008,-0.035,-2.05,1.91,0.1887,-0.6060,0.7861,-0.384,-0.160,0.683,-10.88,-37.94,0.9027,0.1664,0.4496,-4.102,0.403,-6.031,-62.47,15.10,0.45,-3.28,-3.73
10317,906.59,895.31,994.43,0.0444,0.0391,1.1995,-0.067,0.037,0.056,-2.05,1.91,0.1882,-0.6143,0.7849,-0.995,-0.084,0.851,-10.88,-37.96,0.9056,0.1646,0.4417,-4.744,-0.544,-3.359,-62.49,15.09,0.45,-3.28,-3.73
10331,803.44,904.18,969.45,0.0437,0.0435,1.2034,-0.205,-0.008,0.056,-2.05,1.91,0.1863,-0.6074,0.7810,0.914,-0.053,0.469,-10.88,-37.95,0.9014,0.1527,0.4408,-5.080,-0.483,-2.627,-62.50,15.10,0.45,-3.28,-3.73
10346,1011.36,1196.70,1203.96,0.0439,0.0393,1.1914,-0.113,0.053,0.011,-2.05,1.91,0.1951,-0.6089,0.7949,0.669,-0.191,0.408,-10.88,-37.93,0.8998,0.1400,0.4402,-4.820,-1.200,-3.237,-62.52,15.08,0.45,-3.28,-3.73
10370,1780.95,1614.95,1627.84,0.0442,0.0386,1.1975,-0.006,0.144,-0.050,-2.05,1.91,0.1897,-0.6130,0.7788,-1.957,-0.023,1.233,-10.88,-37.98,0.8951,0.1390,0.4287,-4.408,-0.910,-5.161,-62.56,15.04,0.45,-3.29,-3.74
10385,1199.93,1119.34,1196.70,0.0444,0.0388,1.1987,0.024,0.037,-0.112,-2.05,1.91,0.1880,-0.6106,0.7839,0.211,-0.206,0.530,-10.88,-37.98,0.9017,0.1460,0.4194,-4.072,0.204,-5.710,-62.58,15.06,0.45,-3.29,-3.74
10410,1701.17,1843.81,1766.45,0.0435,0.0369,1.1960,0.162,0.129,-0.066,-2.05,1.91,0.1882,-0.6099,0.7927,0.715,0.069,0.683,-10.87,-37.95,0.9026,0.1534,0.4292,-3.797,2.082,-5.527,-62.54,15.06,0.45,-3.29,-3.75
10424,2184.69,2192.75,2062.20,0.0405,0.0383,1.2075,0.101,0.144,0.209,-2.04,1.91,0.1880,-0.6111,0.7898,-0.583,-0.007,0.805,-10.87,-37.96,0.9003,0.1544,0.4398,-3.889,2.189,-5.176,-62.51,15.09,0.45,-3.30,-3.75
10439,2187.11,2038.83,2000.15,0.0432,0.0378,1.1936,-0.159,0.053,0.087,-2.04,1.90,0.1934,-0.6108,0.7861,-1.178,-0.129,0.851,-10.87,-37.97,0.9004,0.1530,0.4495,-4.026,1.456,-5.085,-62.48,15.11,0.45,-3.29,-3.75
10464,850.18,967.84,1004.91,0.0454,0.0378,1.1912,0.177,-0.008,-0.050,-2.05,1.91,0.1873,-0.6133,0.7812,0.639,0.008,0.714,-10.87,-37.96,0.8994,0.1570,0.4480,-4.728,-0.696,-5.146,-62.49,15.08,0.45,-3.29,-3.75
10478,1140.29,1336.12,1306.30,0.0449,0.0405,1.1960,-0.037,-0.069,0.316,-2.05,1.91,0.1914,-0.6018,0.7883,1.081,-0.160,0.439,-10.87,-37.93,0.8987,0.1593,0.4386,-4.774,-1.384,-4.535,-62.52,15.10,0.45,-3.29,-3.75
10503,1617.36,1466.67,1533.55,0.0398,0.0398,1.2002,-0.113,-0.008,0.026,-2.05,1.90,0.1865,-0.6128,0.7856,-1.483,-0.175,0.912,-10.87,-37.97,0.9028,0.1536,0.4274,-4.637,-0.406,-3.298,-62.54,15.09,0.45,-3.30,-3.75
10518,1109.67,1030.70,1133.04,0.0427,0.0369,1.2014,0.055,-0.039,-0.005,-2.05,1.90,0.1902,-0.6104,0.7825,-0.445,-0.328,0.851,-10.88,-37.97,0.8997,0.1420,0.4253,-4.591,0.555,-3.359,-62.55,15.09,0.45,-3.30,-3.75
10542,1814.80,1933.26,1854.29,0.0459,0.0403,1.2002,-0.266,-0.115,0.087,-2.05,1.89,0.1912,-0.6082,0.7939,0.685,-0.038,0.469,-10.88,-37.95,0.9026,0.1315,0.4414,-4.194,0.647,-5.512,-62.54,15.02,0.45,-3.30,-3.76
10557,2220.95,2187.91,2102.49,0.0476,0.0342,1.1978,-0.144,0.114,-0.127,-2.06,1.89,0.1895,-0.6082,0.7810,-0.857,0.023,0.958,-10.88,-37.96,0.8971,0.1396,0.4368,-3.797,0.647,-6.917,-62.54,15.02,0.45,-3.30,-3.76
10582,812.31,876.78,941.25,0.0442,0.0388,1.1995,0.116,0.037,0.056,-2.06,1.89,0.1887,-0.6096,0.7810,-0.537,-0.129,0.775,-10.88,-37.97,0.9037,0.1659,0.4330,-3.965,0.937,-6.871,-62.53,15.04,0.45,-3.31,-3.76
10596,904.18,1087.11,1100.00,0.0452,0.0403,1.1948,-0.312,-0.008,-0.218,-2.06,1.89,0.1858,-0.6089,0.7805,1.158,0.008,0.500,-10.87,-37.95,0.9030,0.1713,0.4349,-3.904,1.166,-5.039,-62.51,15.11,0.45,-3.30,-3.76
10611,1373.99,1573.04,1500.51,0.0388,0.0386,1.1980,0.284,0.007,0.087,-2.05,1.89,0.1868,-0.6069,0.7876,1.020,0.023,0.530,-10.87,-37.93,0.9030,0.1666,0.4469,-4.393,1.273,-3.451,-62.49,15.16,0.45,-3.30,-3.76
10636,1371.58,1253.11,1316.78,0.0430,0.0410,1.1987,-0.281,0.144,-0.050,-2.05,1.88,0.1882,-0.6091,0.7920,-1.010,-0.068,0.882,-10.86,-37.95,0.8999,0.1409,0.4467,-4.927,-0.483,-2.856,-62.50,15.08,0.46,-3.30,-3.76
10650,953.33,925.93,997.66,0.0444,0.0381,1.2017,-0.037,0.053,-0.142,-2.05,1.88,0.1909,-0.6096,0.7815,-0.751,-0.114,0.744,-10.87,-37.96,0.8977,0.1343,0.4485,-5.217,-1.597,-3.924,-62.52,15.04,0.46,-3.30,-3.76
