timestamp_ms,EMG_Quad_mV,EMG_Ham_mV,EMG_Calf_mV,ACC_Quad_X_g,ACC_Quad_Y_g,ACC_Quad_Z_g,GYR_Quad_X_dps,GYR_Quad_Y_dps,GYR_Quad_Z_dps,Pitch_Quad_deg,Roll_Quad_deg,ACC_Ham_X_g,ACC_Ham_Y_g,ACC_Ham_Z_g,GYR_Ham_X_dps,GYR_Ham_Y_dps,GYR_Ham_Z_dps,Pitch_Ham_deg,Roll_Ham_deg,ACC_Calf_X_g,ACC_Calf_Y_g,ACC_Calf_Z_g,GYR_Calf_X_dps,GYR_Calf_Y_dps,GYR_Calf_Z_dps,Pitch_Calf_deg,Roll_Calf_deg,Angle_Quad_Ham_deg,Angle_Quad_Calf_deg,Angle_Ham_Calf_deg
10,2519.12,2677.07,2577.95,0.0176,0.0479,1.2129,-0.045,-0.603,0.025,-1.29,2.43,0.1748,-0.6729,0.7622,1.063,-0.483,-1.463,-9.89,-40.68,1.0079,0.0072,0.2070,0.830,0.123,0.494,-78.93,1.68,0.01,-2.09,-2.11
25,2390.18,2307.99,2313.63,0.0305,0.0505,1.2104,-0.015,-0.771,0.162,-1.30,2.42,0.1765,-0.6467,0.7646,0.376,-0.208,1.194,-9.90,-40.67,0.9966,0.0000,0.2032,0.448,0.810,0.952,-78.91,1.66,0.03,-4.04,-4.06
39,1689.08,1463.44,1564.98,0.0332,0.0522,1.2085,-0.045,1.092,-0.036,-1.29,2.42,0.1770,-0.6543,0.7581,-0.983,0.265,-0.272,-9.90,-40.68,1.0031,0.0090,0.2070,-1.247,0.490,-0.712,-78.89,1.65,0.04,-5.84,-5.88
64,1166.08,1430.40,1369.16,0.0317,0.0554,1.1980,0.001,0.649,0.132,-1.28,2.43,0.1716,-0.6396,0.7454,0.911,0.387,-0.134,-9.89,-40.66,0.9858,0.0183,0.1844,-0.590,-0.213,-0.177,-78.91,1.72,0.05,-7.53,-7.58
79,1985.64,2353.11,2287.03,0.0212,0.0513,1.1982,-0.030,-0.588,-0.006,-1.28,2.43,0.1780,-0.6509,0.7642,0.758,-0.758,-0.409,-9.90,-40.64,1.0055,0.0219,0.1890,0.524,-0.793,1.197,-78.93,1.83,0.06,-9.09,-9.15
93,2565.86,2876.12,2880.95,0.0281,0.0537,1.2043,0.016,-2.496,0.025,-1.32,2.43,0.1753,-0.6528,0.7607,-0.402,0.387,0.003,-9.90,-40.65,1.0112,0.0056,0.1788,0.509,1.512,1.502,-78.93,1.83,0.07,-10.55,-10.62
118,653.55,402.12,342.49,0.0308,0.0464,1.1958,0.077,1.901,-0.143,-1.28,2.43,0.1733,-0.6475,0.7493,-0.372,0.402,-0.287,-9.89,-40.66,1.0099,-0.0114,0.1996,-0.010,-0.350,2.342,-78.93,1.73,0.08,-11.90,-11.98
133,725.27,743.81,666.45,0.0154,0.0515,1.1926,-0.045,2.252,-0.112,-1.23,2.43,0.1697,-0.6475,0.7559,0.575,-0.269,0.232,-9.89,-40.65,0.9747,0.0013,0.2052,-0.590,-1.205,-0.284,-78.93,1.69,0.09,-13.16,-13.25
147,1224.91,1519.05,1480.37,0.0220,0.0508,1.1938,-0.091,-2.359,0.147,-1.26,2.43,0.1797,-0.6475,0.7637,0.895,-0.147,-0.730,-9.89,-40.63,1.0127,-0.0057,0.1931,-0.086,-2.656,1.044,-78.98,1.63,0.09,-14.34,-14.43
172,1482.78,1197.51,1210.40,0.0435,0.0515,1.2053,-0.015,-1.015,-0.128,-1.30,2.43,0.1794,-0.6428,0.7515,-0.738,0.128,-0.394,-9.90,-40.65,1.0074,0.0142,0.1831,0.967,0.215,-0.987,-78.98,1.70,0.10,-15.43,-15.53
187,905.79,490.77,308.64,0.0295,0.0476,1.1951,0.031,3.443,-0.036,-1.26,2.43,0.1702,-0.6479,0.7439,-0.570,0.051,0.675,-9.90,-40.67,0.9818,0.0039,0.1749,1.135,1.222,-0.483,-78.99,1.71,0.11,-16.45,-16.56
201,637.44,335.24,102.34,0.0234,0.0471,1.1931,0.031,2.618,-0.051,-1.22,2.42,0.1826,-0.6511,0.7571,0.529,-0.453,-0.760,-9.91,-40.66,0.9950,0.0244,0.1954,0.326,2.535,-1.826,-78.95,1.83,0.11,-17.40,-17.50
226,2536.04,2917.22,3300.00,0.0347,0.0444,1.2109,-0.091,-4.420,0.178,-1.33,2.41,0.1750,-0.6470,0.7571,0.407,0.204,-0.180,-9.91,-40.65,1.0138,0.0156,0.2064,0.646,1.680,-0.742,-78.90,1.89,0.12,-18.27,-18.38
241,2086.37,2018.68,2216.92,0.0315,0.0518,1.2075,0.077,0.985,-0.021,-1.32,2.42,0.1619,-0.6477,0.7515,0.132,0.250,0.522,-9.89,-40.65,1.0007,0.0186,0.2190,0.066,-0.701,1.945,-78.88,1.95,0.12,-19.07,-19.20
255,1350.62,1044.40,981.54,0.0181,0.0500,1.2021,0.047,5.229,-0.250,-1.24,2.42,0.1643,-0.6477,0.7534,0.483,0.204,0.095,-9.88,-40.64,0.9875,0.0099,0.2112,-0.697,-1.663,2.296,-78.88,1.96,0.13,-19.83,-19.96
280,1499.71,1871.21,1932.45,0.0210,0.0559,1.1934,-0.076,-3.290,0.056,-1.31,2.42,0.1731,-0.6482,0.7585,-1.135,-0.086,-0.317,-9.88,-40.67,0.9878,-0.0094,0.1858,-0.697,-3.602,3.471,-78.98,1.84,0.14,-20.54,-20.67
294,2307.99,2804.40,3237.14,0.0435,0.0540,1.2065,0.001,-5.916,0.132,-1.41,2.42,0.1807,-0.6521,0.7549,-0.402,-0.224,-0.134,-9.89,-40.67,1.0068,-0.0155,0.1735,-0.483,-0.961,0.571,-79.02,1.70,0.15,-21.19,-21.34
319,751.87,377.14,118.46,0.0356,0.0532,1.1953,0.077,5.733,-0.173,-1.28,2.43,0.1775,-0.6418,0.7466,0.285,-0.132,0.370,-9.90,-40.67,0.9846,-0.0062,0.1704,1.196,1.864,-2.605,-79.00,1.65,0.15,-21.81,-21.96
334,619.71,451.28,167.62,0.0081,0.0488,1.1868,0.077,3.015,0.040,-1.22,2.43,0.1741,-0.6501,0.7625,0.575,-0.620,-1.127,-9.91,-40.65,0.9995,0.0037,0.1920,1.028,2.978,-2.681,-78.96,1.65,0.15,-22.38,-22.53
348,927.55,1095.97,981.54,0.0183,0.0452,1.2029,-0.015,-6.038,0.178,-1.30,2.42,0.1697,-0.6541,0.7688,-1.349,-0.483,0.125,-9.91,-40.67,1.0237,0.0046,0.2051,1.318,2.749,-2.666,-78.91,1.66,0.15,-22.90,-23.05
373,1789.82,1594.80,1739.05,0.0417,0.0449,1.2161,0.016,0.756,-0.021,-1.29,2.42,0.1641,-0.6553,0.7490,-0.036,0.372,0.446,-9.89,-40.68,1.0034,0.0234,0.2203,0.524,0.154,-0.941,-78.88,1.77,0.16,-23.39,-23.54
388,1095.97,705.13,578.61,0.0264,0.0464,1.1963,0.108,8.298,-0.403,-1.17,2.41,0.1704,-0.6416,0.7468,3.002,0.051,-0.562,-9.89,-40.64,0.9861,0.0311,0.2133,-0.667,-1.984,0.555,-78.88,1.89,0.15,-23.85,-24.00
402,702.71,340.88,53.19,0.0085,0.0496,1.1853,0.001,2.771,-0.143,-1.12,2.41,0.1736,-0.6394,0.7610,0.117,-0.391,-0.226,-9.89,-40.62,0.9987,0.0280,0.1890,-0.835,-3.312,2.494,-78.94,2.01,0.14,-24.28,-24.43
427,2494.14,3043.74,3300.00,0.0476,0.0576,1.2021,-0.091,-8.832,0.391,-1.36,2.42,0.1736,-0.6511,0.7485,-0.586,-0.132,0.400,-9.90,-40.65,1.0096,0.0010,0.1754,0.005,-0.289,3.181,-78.97,1.97,0.15,-24.67,-24.83
442,2409.52,2503.00,2953.48,0.0508,0.0566,1.2104,0.062,2.466,-0.112,-1.34,2.42,0.1731,-0.6467,0.7554,1.949,0.128,-0.058,-9.89,-40.62,0.9805,-0.0072,0.1812,0.463,0.871,2.510,-78.97,1.89,0.16,-25.04,-25.20
456,1712.45,1481.17,1544.03,0.0149,0.0574,1.1948,0.108,10.008,-0.357,-1.19,2.43,0.1750,-0.6384,0.7593,2.208,-0.224,-0.211,-9.90,-40.57,0.9839,-0.0206,0.1989,0.387,1.589,0.784,-78.94,1.74,0.16,-25.39,-25.54
481,1140.29,1457.00,1378.83,0.0183,0.0530,1.1968,0.001,-8.603,0.361,-1.39,2.43,0.1765,-0.6477,0.7712,-2.983,-0.575,-0.073,-9.91,-40.63,1.0032,-0.0157,0.2047,0.585,0.306,-2.116,-78.92,1.63,0.16,-25.69,-25.86
496,1969.52,2501.39,2660.15,0.0486,0.0564,1.2178,-0.030,-8.969,0.391,-1.53,2.44,0.1787,-0.6592,0.7532,-2.158,-0.056,0.018,-9.92,-40.68,1.0099,0.0001,0.2019,0.188,0.612,-3.506,-78.91,1.60,0.18,-25.97,-26.15
510,2525.57,3082.42,3300.00,0.0498,0.0535,1.2212,-0.060,4.252,-0.112,-1.49,2.44,0.1721,-0.6523,0.7480,2.071,0.296,-0.027,-9.91,-40.66,0.9973,0.0231,0.1962,0.341,0.199,-3.292,-78.90,1.71,0.20,-26.23,-26.42
535,621.32,312.67,21.76,0.0073,0.0437,1.1826,-0.015,5.015,-0.097,-1.34,2.43,0.1716,-0.6443,0.7576,-1.166,-0.040,0.324,-9.91,-40.68,0.9978,0.0398,0.1962,0.188,0.581,-0.193,-78.88,1.91,0.20,-26.48,-26.68
550,678.53,653.55,440.00,0.0212,0.0486,1.1892,0.031,-8.053,0.376,-1.45,2.43,0.1743,-0.6565,0.7439,-3.318,-0.224,0.186,-9.92,-40.74,1.0106,0.0314,0.1990,0.127,-0.091,2.174,-78.88,2.05,0.21,-26.70,-26.91
564,1173.33,1494.87,1417.51,0.0491,0.0483,1.2180,-0.030,-7.656,0.285,-1.58,2.43,0.1724,-0.6614,0.7427,-0.143,-0.056,-0.211,-9.92,-40.76,1.0007,0.0128,0.2063,-0.239,-0.503,2.998,-78.88,2.08,0.23,-26.90,-27.13
589,1472.31,1162.86,1149.16,0.0249,0.0503,1.1978,-0.076,9.443,-0.387,-1.34,2.42,0.1729,-0.6440,0.7595,2.147,0.235,0.003,-9.91,-40.70,0.9949,-0.0088,0.1936,-0.606,-2.365,2.449,-78.94,1.97,0.23,-27.11,-27.34
604,872.75,424.69,223.22,0.0105,0.0471,1.1838,0.047,3.290,-0.173,-1.28,2.42,0.1724,-0.6467,0.7605,-1.212,-0.056,0.202,-9.91,-40.71,0.9943,-0.0107,0.1807,-0.590,-2.197,0.922,-78.98,1.86,0.23,-27.31,-27.53
618,608.42,300.59,0.00,0.0259,0.0510,1.1951,-0.076,-8.084,0.193,-1.39,2.42,0.1758,-0.6516,0.7476,-1.944,-0.132,0.232,-9.91,-40.75,0.9978,-0.0104,0.1710,-0.086,-0.518,-0.193,-79.01,1.75,0.23,-27.49,-27.72
643,2569.89,3037.29,3300.00,0.0449,0.0554,1.2114,0.047,1.687,0.071,-1.37,2.43,0.1753,-0.6462,0.7522,2.758,0.189,-0.333,-9.91,-40.68,0.9961,0.0042,0.1847,0.967,2.932,-1.490,-78.95,1.76,0.23,-27.65,-27.88
658,2154.07,2121.83,2403.08,0.0181,0.0515,1.1946,0.001,8.664,-0.173,-1.23,2.43,0.1787,-0.6409,0.7664,1.552,0.097,-0.211,-9.91,-40.64,0.9963,0.0067,0.2040,0.646,3.375,-1.841,-78.89,1.77,0.23,-27.81,-28.03
672,1382.05,1024.25,1013.77,0.0120,0.0527,1.1899,0.092,1.595,0.056,-1.20,2.43,0.1746,-0.6470,0.7634,-2.647,-0.178,0.354,-9.91,-40.67,1.0026,0.0131,0.2212,0.524,2.001,-1.597,-78.84,1.81,0.22,-27.95,-28.17
697,1470.70,1895.38,1909.08,0.0510,0.0544,1.2051,-0.045,-6.863,0.193,-1.39,2.43,0.1777,-0.6567,0.7468,0.315,0.143,0.095,-9.92,-40.68,1.0045,0.0254,0.2129,-0.209,-0.991,-0.467,-78.84,1.91,0.22,-28.08,-28.30
711,2307.18,2986.52,3262.12,0.0408,0.0500,1.2097,-0.076,3.840,-0.112,-1.34,2.43,0.1775,-0.6426,0.7610,3.888,0.112,-0.455,-9.92,-40.61,0.9971,0.0276,0.1993,-0.392,-2.594,1.349,-78.88,2.02,0.22,-28.20,-28.42
726,2578.75,3015.53,3300.00,0.0151,0.0498,1.1941,0.016,8.160,-0.219,-1.21,2.43,0.1704,-0.6414,0.7654,0.437,0.112,0.263,-9.91,-40.59,1.0046,0.0205,0.1909,-0.651,-2.320,2.662,-78.92,2.10,0.21,-28.32,-28.53
751,575.38,327.18,41.10,0.0227,0.0486,1.1948,-0.060,-6.603,0.193,-1.37,2.43,0.1719,-0.6555,0.7488,-3.150,-0.254,0.217,-9.92,-40.68,0.9983,-0.0051,0.1854,-0.422,-1.068,3.487,-78.95,2.01,0.22,-28.43,-28.64
766,816.34,943.66,768.79,0.0469,0.0457,1.2195,-0.015,-5.733,0.178,-1.47,2.42,0.1702,-0.6558,0.7468,1.384,0.005,-0.501,-9.91,-40.67,0.9971,-0.0239,0.1851,-0.163,-0.289,1.823,-78.97,1.82,0.23,-28.52,-28.75
780,1561.76,2025.93,2053.33,0.0398,0.0479,1.2107,0.062,3.595,-0.158,-1.43,2.42,0.1719,-0.6467,0.7673,3.659,0.173,-0.363,-9.90,-40.61,0.9968,-0.0264,0.1843,0.234,0.520,-0.437,-78.97,1.63,0.24,-28.61,-28.84
805,1130.62,709.16,591.50,0.0103,0.0474,1.1929,0.047,2.618,-0.128,-1.35,2.42,0.1714,-0.6460,0.7524,-2.769,-0.178,0.492,-9.91,-40.68,0.9937,-0.0018,0.1870,0.478,1.436,-3.032,-78.94,1.59,0.24,-28.69,-28.93
819,684.18,263.52,0.00,0.0212,0.0515,1.1921,-0.076,-5.702,0.117,-1.42,2.42,0.1709,-0.6528,0.7446,-2.738,-0.300,0.141,-9.91,-40.73,0.9976,0.0140,0.1919,0.387,1.665,-3.002,-78.92,1.65,0.24,-28.77,-29.01
834,606.81,438.39,174.87,0.0435,0.0522,1.2063,-0.106,-5.351,0.239,-1.51,2.42,0.1738,-0.6565,0.7549,1.857,-0.178,-0.562,-9.91,-40.71,1.0071,0.0240,0.1953,0.555,1.925,-1.765,-78.89,1.77,0.25,-28.83,-29.08
859,2457.07,2644.84,3213.77,0.0239,0.0479,1.1980,0.062,6.160,-0.235,-1.35,2.42,0.1733,-0.6460,0.7625,0.453,0.097,0.064,-9.91,-40.69,1.0066,0.0232,0.2140,0.326,0.917,0.494,-78.85,1.86,0.25,-28.89,-29.15
873,1705.20,1473.11,1560.15,0.0164,0.0557,1.1829,0.062,2.450,-0.128,-1.31,2.42,0.1733,-0.6472,0.7563,-3.013,-0.056,0.507,-9.91,-40.73,1.0032,0.0176,0.2163,-0.163,-0.778,1.655,-78.84,1.92,0.25,-28.96,-29.21
888,1041.17,611.65,481.90,0.0286,0.0518,1.1995,-0.076,-5.000,0.239,-1.38,2.42,0.1721,-0.6514,0.7483,-1.150,-0.071,0.202,-9.91,-40.75,0.9999,0.0110,0.2069,-0.438,-1.953,2.128,-78.86,1.93,0.25,-29.01,-29.26
912,1970.33,2486.89,2630.33,0.0400,0.0500,1.2078,-0.076,0.557,-0.082,-1.38,2.42,0.1794,-0.6428,0.7610,3.017,-0.040,-0.470,-9.91,-40.67,1.0001,-0.0013,0.1858,-0.560,-2.182,1.746,-78.92,1.87,0.25,-29.07,-29.32
927,2537.66,3104.18,3300.00,0.0264,0.0488,1.1921,0.047,5.290,-0.143,-1.30,2.42,0.1750,-0.6414,0.7656,-0.418,-0.010,0.141,-9.91,-40.66,0.9977,-0.0079,0.1768,-0.300,-1.144,0.983,-78.96,1.78,0.25,-29.12,-29.37
952,609.23,323.15,50.77,0.0239,0.0522,1.1926,-0.030,-2.985,0.071,-1.37,2.42,0.1741,-0.6553,0.7485,-2.479,-0.040,0.247,-9.92,-40.73,0.9982,-0.0052,0.1851,0.448,1.161,-0.742,-78.94,1.72,0.25,-29.17,-29.42
967,677.73,643.88,434.36,0.0403,0.0491,1.2102,-0.015,-4.282,0.117,-1.44,2.42,0.1694,-0.6560,0.7498,1.689,0.036,-0.348,-9.91,-40.71,0.9939,0.0018,0.1887,0.601,2.032,-1.612,-78.92,1.71,0.26,-29.21,-29.47
981,1204.76,1536.78,1489.23,0.0361,0.0471,1.2087,0.077,1.519,-0.021,-1.42,2.41,0.1758,-0.6504,0.7568,2.941,-0.056,-0.485,-9.91,-40.67,1.0026,0.0094,0.1986,0.448,1.314,-1.765,-78.90,1.73,0.26,-29.25,-29.51
1006,1482.78,1179.78,1175.75,0.0225,0.0486,1.1895,0.031,1.947,-0.235,-1.37,2.41,0.1741,-0.6514,0.7559,-3.181,-0.086,0.461,-9.91,-40.75,1.0023,0.0232,0.2021,0.066,0.154,-0.803,-78.89,1.83,0.26,-29.28,-29.55
1020,884.84,460.15,256.26,0.0254,0.0471,1.1973,-0.030,-3.183,0.178,-1.41,2.41,0.1750,-0.6570,0.7500,-1.227,-0.056,0.079,-9.92,-40.78,1.0035,0.0251,0.1976,0.051,-0.488,0.494,-78.89,1.94,0.26,-29.32,-29.58
1035,606.81,331.21,39.49,0.0378,0.0505,1.2070,0.016,-2.954,-0.021,-1.46,2.41,0.1736,-0.6548,0.7512,3.079,0.112,-0.409,-9.91,-40.74,0.9984,0.0171,0.1982,-0.361,-0.808,1.700,-78.90,1.99,0.27,-29.34,-29.61
1060,2557.00,2974.43,3300.00,0.0261,0.0486,1.2046,0.016,3.870,-0.158,-1.36,2.41,0.1772,-0.6426,0.7668,-0.509,0.036,0.141,-9.92,-40.74,0.9980,0.0020,0.1917,-0.010,-0.991,2.250,-78.93,1.97,0.27,-29.38,-29.64
1074,2137.14,2062.20,2299.93,0.0212,0.0542,1.1943,-0.106,0.908,-0.067,-1.34,2.41,0.1714,-0.6526,0.7566,-3.318,-0.224,0.476,-9.91,-40.78,0.9966,-0.0082,0.1935,-0.239,-0.762,1.456,-78.94,1.88,0.27,-29.41,-29.68
1099,833.26,941.25,735.75,0.0344,0.0515,1.2090,-0.030,-3.275,0.193,-1.43,2.41,0.1694,-0.6482,0.7490,1.949,0.143,-0.272,-9.91,-40.74,1.1648,-0.1030,0.3916,59.898,43.299,-128.101,-77.73,3.00,0.27,-29.35,-29.62
1114,1533.55,1938.10,1998.53,0.0376,0.0488,1.1997,0.031,1.046,0.025,-1.42,2.41,0.1755,-0.6438,0.7639,2.987,-0.025,-0.333,-9.91,-40.68,1.2174,-0.3240,0.3019,40.616,98.581,-136.635,-76.17,2.58,0.27,-29.18,-29.46
1138,1224.91,854.21,692.23,0.0203,0.0522,1.1904,0.062,1.962,-0.158,-1.36,2.41,0.1746,-0.6477,0.7578,-3.441,-0.162,0.843,-9.91,-40.76,0.8806,0.1356,0.3043,49.944,52.612,-111.826,-74.75,4.22,0.27,-28.94,-29.21
1153,735.75,387.62,37.88,0.0332,0.0510,1.1917,0.047,-2.771,0.086,-1.41,2.41,0.1797,-0.6558,0.7429,-1.929,-0.162,0.247,-9.92,-40.80,0.8256,0.1826,0.0538,55.013,84.245,-135.490,-73.60,6.39,0.28,-28.62,-28.90
1168,631.79,451.28,111.21,0.0386,0.0525,1.1992,-0.045,-2.496,0.178,-1.45,2.42,0.1765,-0.6577,0.7524,2.514,0.082,-0.241,-9.92,-40.78,0.9561,0.2585,0.2787,64.387,106.612,-148.956,-71.96,8.04,0.28,-28.21,-28.49
1193,2481.25,2718.97,3300.00,0.0239,0.0496,1.2012,0.047,3.733,-0.143,-1.36,2.42,0.1743,-0.6431,0.7676,-0.067,0.387,0.156,-9.91,-40.76,1.1539,0.1602,0.4147,25.990,90.978,-108.925,-69.67,8.94,0.28,-27.68,-27.95
1207,1909.08,1756.78,1938.10,0.0188,0.0464,1.1931,0.108,1.626,0.101,-1.32,2.41,0.1699,-0.6497,0.7590,-3.212,0.036,0.568,-9.91,-40.80,0.7852,0.3895,0.1382,9.257,92.642,-124.223,-68.21,10.30,0.27,-27.08,-27.35
1232,930.77,1121.76,974.29,0.0369,0.0488,1.2039,-0.030,-2.649,0.071,-1.40,2.41,0.1697,-0.6562,0.7522,2.529,0.479,-0.516,-9.89,-40.75,1.1295,0.6503,0.6589,21.288,96.673,-74.116,-65.49,11.51,0.28,-26.33,-26.60
1247,1603.66,2029.96,2144.40,0.0327,0.0496,1.2026,-0.030,1.076,-0.036,-1.38,2.41,0.1733,-0.6436,0.7588,2.987,0.326,-0.241,-9.89,-40.69,0.9978,0.7679,0.8198,26.097,63.024,-18.055,-64.11,12.51,0.28,-25.53,-25.81
1272,1198.32,877.58,698.68,0.0237,0.0535,1.1968,0.031,1.885,-0.006,-1.33,2.41,0.1775,-0.6531,0.7468,-3.242,-0.025,0.782,-9.89,-40.78,0.7938,0.3281,0.5825,-8.667,45.421,2.983,-62.72,12.64,0.28,-24.70,-24.98
1286,751.87,444.84,140.22,0.0288,0.0510,1.2014,0.047,-1.229,0.162,-1.35,2.41,0.1770,-0.6577,0.7402,-1.181,0.265,0.507,-9.89,-40.82,0.7799,0.4150,0.5872,-4.835,27.299,15.090,-62.02,13.02,0.28,-23.87,-24.15
1301,672.09,554.43,286.89,0.0359,0.0571,1.1951,-0.045,-1.519,0.086,-1.38,2.42,0.1770,-0.6519,0.7500,3.292,0.326,-0.272,-9.89,-40.77,0.8337,0.6478,0.6151,-7.919,18.856,24.342,-61.37,13.58,0.28,-23.06,-23.34
1326,2361.98,2473.99,2825.35,0.0225,0.0491,1.2000,-0.030,2.221,-0.158,-1.32,2.42,0.1716,-0.6367,0.7732,-1.074,0.112,0.370,-9.89,-40.77,0.9369,0.6191,0.8108,-10.926,-16.686,65.059,-61.40,13.79,0.28,-22.31,-22.58
1340,1783.37,1623.81,1701.17,0.0203,0.0481,1.1924,0.016,0.878,-0.051,-1.30,2.42,0.1699,-0.6526,0.7468,-3.776,0.112,0.431,-9.88,-40.84,0.9437,0.5913,0.6809,-24.590,-38.533,96.617,-61.65,13.98,0.27,-21.63,-21.90
1365,1080.66,1286.96,1181.39,0.0322,0.0518,1.1985,0.001,-1.840,0.040,-1.35,2.42,0.1714,-0.6548,0.7522,2.239,0.158,-0.592,-9.87,-40.78,0.7972,0.3403,0.4716,-20.407,-58.762,128.311,-62.92,13.92,0.27,-21.08,-21.36
1380,1753.55,2178.24,2323.30,0.0293,0.0474,1.2078,-0.045,0.466,0.086,-1.34,2.41,0.1741,-0.6460,0.7598,2.269,0.097,-0.470,-9.87,-40.74,0.9868,0.3417,0.5824,5.333,-68.732,132.006,-63.76,14.33,0.27,-20.63,-20.91
1405,1075.02,715.60,485.13,0.0239,0.0471,1.1943,-0.015,0.924,0.132,-1.32,2.41,0.1753,-0.6509,0.7517,-2.967,-0.117,0.232,-9.88,-40.82,1.0364,0.2419,0.5310,-35.415,-91.434,167.502,-65.92,13.67,0.27,-20.37,-20.64
1419,710.77,382.78,6.45,0.0249,0.0466,1.1934,-0.030,-0.863,0.239,-1.33,2.41,0.1748,-0.6575,0.7422,-1.150,-0.101,0.186,-9.88,-40.85,0.7584,-0.1533,0.3716,-32.667,-106.014,185.975,-67.36,12.48,0.27,-20.22,-20.49
1444,2455.46,2953.48,3300.00,0.0295,0.0496,1.2031,0.047,-0.221,-0.021,-1.34,2.41,0.1770,-0.6458,0.7681,3.430,0.021,-0.562,-9.88,-40.75,0.2826,-1.1105,0.3739,-33.674,-89.205,46.418,-68.44,9.99,0.27,-20.16,-20.43
1458,2247.55,2295.90,2765.71,0.0295,0.0547,1.1997,0.047,1.458,0.086,-1.32,2.41,0.1741,-0.6406,0.7717,-0.647,0.082,0.232,-9.88,-40.74,0.7078,-0.9821,0.2661,-47.644,-98.579,-43.872,-69.18,7.61,0.27,-20.16,-20.43
1483,752.67,730.92,411.79,0.0278,0.0537,1.1941,-0.015,-0.038,0.086,-1.32,2.41,0.1660,-0.6523,0.7502,-1.425,0.158,0.461,-9.87,-40.78,0.9146,-0.1354,0.7920,-15.613,-108.610,-143.887,-71.41,6.89,0.27,-20.31,-20.58
1498,1280.51,1607.69,1569.01,0.0295,0.0562,1.2000,-0.045,-1.061,0.025,-1.33,2.42,0.1731,-0.6526,0.7549,2.285,0.143,-0.119,-9.87,-40.75,1.1281,0.4907,0.0840,-68.621,-105.633,-88.086,-72.82,7.37,0.27,-20.55,-20.82
1523,1405.42,1095.97,988.79,0.0254,0.0544,1.2034,0.001,0.466,-0.006,-1.32,2.42,0.1753,-0.6443,0.7646,-0.387,0.112,0.385,-9.87,-40.74,1.3046,1.0653,-0.7769,-29.170,-19.327,-1.124,-72.72,9.04,0.27,-20.77,-21.04
1537,867.11,457.73,1.61,0.0247,0.0505,1.1990,-0.030,0.969,-0.112,-1.30,2.42,0.1738,-0.6504,0.7563,-2.983,-0.132,0.461,-9.87,-40.79,1.2026,0.7340,-0.1121,54.524,73.986,42.403,-71.38,11.61,0.27,-20.88,-21.14
1562,2217.73,2773.77,3300.00,0.0217,0.0471,1.1987,0.001,-0.664,0.147,-1.31,2.42,0.1765,-0.6643,0.7478,1.353,0.067,-0.165,-9.87,-40.77,1.0477,0.2476,0.1624,61.028,73.360,115.746,-69.65,13.99,0.26,-20.86,-21.12
1577,2474.80,2875.31,3300.00,0.0286,0.0488,1.1978,-0.030,-0.435,0.178,-1.32,2.42,0.1694,-0.6455,0.7590,3.063,0.250,-0.684,-9.86,-40.72,1.1207,-0.5525,1.2327,12.219,22.306,110.006,-68.73,13.41,0.26,-20.77,-21.04
1602,743.00,508.50,0.00,0.0244,0.0498,1.2036,0.062,0.725,-0.173,-1.30,2.42,0.1721,-0.6489,0.7520,-2.555,0.173,0.293,-9.86,-40.78,0.8726,-0.7377,0.5793,-19.873,-93.052,14.189,-70.48,11.62,0.26,-20.82,-21.08
1616,834.07,848.57,493.19,0.0259,0.0520,1.1990,-0.015,0.160,0.162,-1.30,2.42,0.1709,-0.6509,0.7407,-1.105,0.219,0.476,-9.85,-40.81,0.9537,-0.0625,-0.1398,-68.590,-97.755,-5.887,-72.09,7.29,0.26,-20.98,-21.24
1641,1938.10,1861.54,2381.32,0.0261,0.0508,1.2043,0.001,-0.634,0.056,-1.31,2.42,0.1792,-0.6460,0.7622,2.788,0.097,-0.516,-9.86,-40.73,0.9424,0.4073,-0.8285,33.608,15.879,-20.162,-71.17,11.04,0.26,-21.06,-21.32
1655,1237.00,867.91,576.19,0.0308,0.0513,1.2048,-0.045,0.344,0.101,-1.31,2.42,0.1738,-0.6423,0.7629,-0.631,0.051,0.156,-9.86,-40.73,1.0457,0.1940,0.5557,91.990,53.970,13.777,-70.19,12.51,0.26,-21.06,-21.32
1680,1599.63,2048.50,2227.40,0.0271,0.0515,1.1963,-0.060,0.450,0.040,-1.30,2.42,0.1794,-0.6533,0.7449,-1.746,-0.117,0.064,-9.87,-40.78,0.7570,0.1038,-0.0284,0.341,-190.060,36.907,-75.07,14.37,0.26,-21.41,-21.67
1695,2324.10,3059.85,3300.00,0.0300,0.0503,1.1995,-0.015,-0.649,0.040,-1.31,2.42,0.1709,-0.6516,0.7478,1.353,0.036,0.110,-9.87,-40.77,1.2047,-0.1942,-0.2367,-15.170,-12.976,-4.712,-75.27,11.06,0.26,-21.74,-22.00
1720,709.16,253.85,0.00,0.0256,0.0469,1.2021,-0.045,0.053,-0.021,-1.31,2.41,0.1721,-0.6411,0.7571,0.330,0.082,0.202,-9.86,-40.75,0.9824,-0.0457,0.4106,-5.796,-93.907,2.662,-77.39,10.57,0.26,-22.21,-22.46
1734,637.44,434.36,0.00,0.0266,0.0498,1.1960,0.016,0.618,-0.189,-1.30,2.41,0.1724,-0.6479,0.7546,-2.494,-0.025,0.049,-9.86,-40.78,1.0084,-0.0975,-0.6067,10.494,-87.831,-34.803,-78.26,7.09,0.26,-22.70,-22.95
1749,969.45,1160.44,630.99,0.0298,0.0481,1.1956,0.031,-0.069,0.040,-1.30,2.41,0.1648,-0.6592,0.7505,-1.212,0.021,0.385,-9.85,-40.81,0.9138,0.2214,-0.8413,-49.262,26.352,-8.880,-77.25,9.55,0.26,-23.08,-23.34
1774,1701.98,1471.50,1843.81,0.0298,0.0500,1.2029,0.077,-0.603,-0.021,-1.32,2.41,0.1716,-0.6433,0.7554,2.559,0.097,-0.272,-9.85,-40.74,1.3035,0.7550,0.3474,51.181,24.612,61.059,-76.25,11.90,0.26,-23.37,-23.63
1788,1087.11,605.20,169.23,0.0249,0.0505,1.1948,-0.045,0.099,0.117,-1.31,2.41,0.2307,-2.0000,0.3147,-0.570,2.754,-4.302,-9.74,-41.55,0.9061,0.0240,0.4497,36.692,-16.457,100.800,-76.24,12.25,0.27,-23.64,-23.90
1813,1848.64,2368.43,2818.10,0.0374,0.0581,1.2183,0.016,-4.588,-1.364,-1.44,2.42,0.5024,-0.3657,1.3967,79.796,16.891,-86.669,-9.52,-39.07,0.8149,-0.1500,0.2620,10.585,-13.175,37.212,-76.43,11.67,0.30,-23.89,-24.19
1828,2449.01,3063.88,3300.00,-0.0427,0.1101,1.1650,0.352,7.519,3.979,-1.26,2.48,0.5369,-0.0576,0.6060,-18.921,68.051,-28.608,-9.19,-38.67,0.9967,-0.0756,-0.1638,30.280,-35.388,6.204,-77.00,8.76,0.34,-24.18,-24.52
1852,681.76,289.30,0.00,0.0935,0.1252,0.8079,-22.427,-0.099,-7.624,-1.37,2.06,0.0557,-0.1831,0.5242,32.208,19.532,-39.859,-8.64,-37.49,0.9893,-0.0922,-0.0695,40.020,69.803,37.533,-75.42,7.02,0.42,-24.32,-24.75
1867,730.92,609.23,0.00,0.3286,0.0100,1.0264,-177.343,-182.527,22.880,-4.29,-0.49,0.0125,-0.5522,0.9592,-30.387,-0.132,10.186,-8.48,-37.77,0.9196,-0.2288,0.5685,53.654,56.856,6.846,-74.23,7.21,0.72,-24.18,-24.89
1892,2170.99,2215.31,3300.00,-0.6406,0.1702,0.8823,3.909,49.550,-44.143,-2.29,-0.17,0.1016,-0.7195,0.9324,23.369,-10.056,-6.898,-8.66,-37.20,1.1340,-0.0887,0.7288,4.723,-60.472,46.739,-75.36,7.04,0.84,-24.26,-25.09
1906,1457.00,1147.55,1130.62,-0.2778,0.1245,1.3135,-23.205,-28.557,-64.601,-2.41,-0.39,0.3186,-2.0000,0.3572,-109.776,40.021,-74.699,-8.09,-39.62,0.9900,-0.1760,-0.1257,-43.964,-40.991,29.471,-75.99,3.76,1.00,-24.37,-25.36
1931,1313.55,1637.51,1444.91,0.4163,0.0803,0.4871,187.756,80.756,-37.777,-1.20,4.40,0.0383,-0.1870,0.6948,-60.372,64.494,-85.310,-6.42,-40.60,0.7933,-0.2736,0.1049,-39.170,-22.732,7.853,-76.42,1.35,1.18,-24.58,-25.76
1946,2054.14,2586.01,3300.00,0.4209,0.1816,1.3638,18.566,215.962,-73.578,1.58,4.72,0.3333,-0.5168,0.5193,58.132,38.647,-36.867,-6.22,-39.86,0.8226,-0.2584,0.0326,-62.972,-42.564,-35.383,-76.95,-1.24,1.17,-25.02,-26.18
1971,875.97,443.22,0.00,-0.2766,-0.0649,1.4419,26.260,-107.427,-33.700,-0.84,5.22,-0.2722,-0.3818,1.6892,-151.883,179.425,-63.356,-1.56,-43.00,1.0858,-0.0118,-0.2295,-7.705,-22.472,-64.849,-77.51,-4.94,1.65,-25.29,-26.94
1985,668.86,390.04,0.00,-0.2173,0.0005,1.3611,-46.518,-92.099,24.941,-1.97,4.44,0.1941,0.1243,1.9999,43.475,46.616,-91.401,-0.98,-41.45,1.1926,-0.1475,-0.1345,-8.117,11.070,-50.742,-77.42,-7.60,2.22,-25.46,-27.68
2010,2436.92,2777.80,0.00,0.0166,0.0591,1.2190,69.527,74.771,-34.067,-0.13,6.10,-0.1521,-0.1682,0.7437,97.857,-191.598,-25.966,-5.38,-38.50,1.0591,-0.0500,0.3398,-19.506,23.467,-36.116,-76.74,-8.09,2.31,-25.70,-28.01
2025,2033.99,1967.91,0.00,-0.0005,0.0999,1.1631,7.985,75.748,-8.021,0.96,6.19,-0.2568,-0.1611,0.6379,-76.189,-118.529,47.194,-6.55,-39.10,0.9904,-0.0117,0.2228,-14.819,17.711,-32.605,-76.50,-8.20,2.24,-25.98,-28.22
2050,864.69,941.25,0.00,0.0503,0.0757,1.2229,-1.373,-67.290,-3.578,-0.74,6.10,-0.0754,-0.5452,0.4844,18.788,-66.025,53.912,-7.90,-38.83,1.0538,0.1649,-0.2102,-16.560,7.115,-35.338,-76.31,-5.60,2.20,-26.11,-28.31
2064,1502.93,1894.58,1942.93,0.1707,-0.0371,1.3042,-11.144,-42.634,-14.372,-1.48,5.79,0.0972,-2.0000,-0.5154,-496.845,33.593,84.736,-7.32,-47.29,1.1213,0.3463,-0.0560,-2.407,34.886,-8.330,-75.73,-3.54,2.26,-26.13,-28.39
2089,1258.75,900.15,474.65,-0.0405,0.0723,1.0085,-2.549,68.099,-6.555,0.25,5.69,0.8032,-0.2837,0.5427,-129.899,118.540,-60.333,-5.33,-50.06,0.9406,-0.0275,0.4713,4.234,-8.885,-8.162,-75.70,-3.44,2.32,-26.28,-28.60
2104,806.67,423.88,0.00,-0.0955,0.1594,1.0088,31.985,-9.107,-4.189,0.22,6.22,0.8145,-1.0076,1.0132,27.949,94.067,30.247,-4.48,-49.56,1.0431,-0.0503,0.5728,13.013,-40.625,-11.521,-75.99,-3.28,2.45,-26.43,-28.88
2128,2329.74,2853.55,3300.00,-0.0139,0.0171,1.1597,-43.251,-61.809,2.926,-1.27,5.06,0.5007,-0.4692,1.9999,123.750,98.112,-25.447,-2.28,-45.83,1.0798,0.1654,0.4373,10.570,-131.312,-17.750,-78.99,-2.54,2.82,-26.68,-29.50
2143,2413.55,2693.99,3300.00,0.1650,0.0122,1.2197,33.054,1.443,-27.777,-1.38,5.45,0.0667,-0.3926,1.2764,38.163,46.265,-7.585,-1.62,-44.70,1.0886,0.4979,-0.3104,-65.445,-171.434,56.662,-81.13,-1.00,3.22,-27.05,-30.28
2168,660.00,490.77,0.00,-0.0010,-0.0149,1.0171,-9.908,35.000,26.819,-0.50,5.08,0.0193,-0.5303,0.9590,-13.746,-36.895,33.606,-2.50,-44.72,1.5677,0.0388,0.3353,33.104,-137.633,16.433,-84.41,-0.05,3.48,-27.69,-31.17
2183,965.42,1104.84,751.87,-0.0583,0.1912,1.2319,8.932,-21.840,-12.769,-0.75,5.28,0.3667,-0.6160,0.4810,9.811,-80.056,19.652,-4.10,-44.72,0.9596,-0.4500,0.2283,43.501,-109.617,-30.834,-85.53,-0.69,3.61,-28.35,-31.96
2207,1782.56,1594.80,2474.80,0.1133,0.0071,1.2405,-2.518,-28.450,-0.830,-1.53,5.12,0.0166,-0.7578,0.6787,85.277,70.525,-53.722,-2.33,-42.72,0.5994,0.1166,0.3164,24.249,-223.587,-16.162,-90.47,0.32,3.92,-29.24,-33.17
2222,1187.84,812.31,608.42,0.1116,0.0757,1.2747,3.390,15.687,0.056,-1.37,5.14,0.0505,-0.8047,0.7427,64.636,129.838,-64.440,-0.45,-41.87,0.7148,0.4109,-0.7067,-79.247,-256.930,39.227,-93.20,2.16,4.33,-30.28,-34.61
2247,1693.11,2133.11,2540.07,0.0093,-0.2346,1.3572,8.215,11.534,7.628,-1.07,5.04,0.4575,-0.6990,0.9556,-25.227,73.074,-60.867,0.92,-42.38,0.3378,0.7944,-2.0000,-11.735,38.215,25.700,-90.59,5.00,4.78,-31.09,-35.87
2262,2332.97,2876.12,3300.00,-0.0215,-0.3970,1.1873,1.405,47.565,63.949,-0.35,4.59,0.1160,-0.6731,1.1538,-48.845,44.219,-72.959,1.43,-42.83,0.2582,0.8153,-1.6069,-9.476,156.734,49.991,-86.69,7.83,5.19,-31.61,-36.80
2286,777.66,431.14,0.00,-0.6387,-1.0527,1.4768,-11.770,11.031,-63.578,0.32,3.50,0.3176,-0.3997,1.0916,-22.463,23.700,-44.608,1.68,-42.92,0.4727,0.0608,-0.7787,75.517,321.375,183.349,-77.78,13.01,5.54,-31.52,-37.06
2301,743.81,607.62,398.10,0.1289,-0.5591,1.3999,-3.434,77.489,-242.036,1.32,2.95,0.3022,-0.5903,0.9644,10.819,-9.720,-24.684,1.20,-42.54,0.3577,-0.4205,-0.4409,101.914,400.642,132.158,-71.08,11.49,5.76,-31.04,-36.80
2326,2258.02,2342.64,2887.40,-0.0439,0.9827,1.8215,368.535,-41.809,-281.517,0.31,12.40,0.2764,-0.7739,0.8936,-13.853,-48.529,-29.279,-0.26,-42.84,1.5284,0.4054,1.5927,136.509,424.490,-213.536,-60.21,14.86,5.93,-29.76,-35.70
2341,1681.03,1482.78,1593.19,-0.3020,1.4243,1.3291,199.024,47.641,-200.784,1.16,15.97,0.2603,-0.5454,0.9570,-51.105,-93.750,-18.226,-1.88,-43.32,1.2938,0.1469,0.2874,202.158,201.161,-15.704,-57.62,18.02,5.92,-28.45,-34.37
2365,1121.76,1378.83,1328.06,-0.0691,1.7913,1.8918,118.535,3.382,41.613,1.25,19.40,0.2566,-0.4624,0.8596,-34.692,-110.300,-2.928,-4.81,-43.86,0.7405,-0.5764,1.5426,31.333,98.001,-29.170,-54.57,18.01,5.70,-27.03,-32.72
2380,1844.62,2268.50,2586.81,-0.0637,1.2412,1.9999,8.260,-66.389,209.216,0.31,19.76,0.2405,-0.6721,0.7505,3.857,-95.827,-20.882,-6.36,-43.76,0.8394,0.0774,1.5631,35.623,-18.747,-24.987,-54.32,18.22,5.45,-25.62,-31.07
2405,998.46,645.49,182.12,-0.2766,-0.1716,1.5144,-123.679,-231.076,287.109,-5.11,16.23,0.3728,-0.6440,0.6338,3.430,-99.048,-47.066,-9.08,-43.71,1.0300,-0.0822,0.6758,-7.705,-147.098,-29.918,-57.94,17.53,5.40,-24.18,-29.58
2419,706.74,399.71,0.00,-0.1577,-0.6440,1.1736,-133.740,-286.847,203.674,-8.98,13.42,0.4705,-0.7935,0.4563,1.124,-85.124,-52.455,-10.67,-44.03,1.1862,0.1387,0.7668,-58.682,-166.793,-6.941,-60.30,16.54,5.52,-22.74,-28.26
2444,2461.90,2990.55,3300.00,-0.1497,-0.6931,0.5452,-137.663,-263.382,-0.173,-15.01,8.77,0.1455,-0.0723,0.6033,-79.761,-81.292,-66.455,-12.70,-45.22,1.1802,0.3344,1.0234,-77.613,-267.404,35.441,-66.54,14.69,5.92,-21.41,-27.33
2459,2236.26,2300.73,3300.00,0.2930,0.0603,0.1345,3.375,-267.580,-140.219,-19.82,9.12,0.3374,-0.4104,0.3105,138.422,-63.949,-131.264,-14.03,-43.38,1.0490,-0.4910,0.5411,-59.766,-415.999,89.548,-72.30,12.69,6.52,-20.24,-26.77
2484,700.29,657.58,0.00,0.4958,1.2681,-0.1753,-48.198,-91.824,-50.112,-22.09,9.72,0.5725,-0.0503,0.7117,78.575,17.670,37.438,-14.09,-40.68,0.4244,-0.2651,-0.5852,-39.445,-328.594,-45.765,-79.56,8.36,7.24,-19.51,-26.75
2498,1237.00,1581.90,1388.50,0.2319,1.2549,-0.0300,-1.526,21.519,114.346,-21.55,11.33,0.1616,-0.3562,0.5078,-42.311,3.471,52.736,-14.05,-41.17,0.3199,0.1089,-0.4900,-69.628,-258.762,-115.246,-82.32,10.54,7.88,-19.05,-26.93
2523,1460.22,1151.58,1124.98,-0.1196,-0.5962,0.7446,-123.450,156.145,259.323,-17.18,7.33,0.5173,-0.7705,0.3335,-101.868,-41.643,-29.753,-15.42,-44.16,0.2124,0.8384,-1.0344,-118.712,-109.129,-25.261,-83.52,10.26,8.07,-19.02,-27.09
2538,952.53,550.40,0.00,0.0508,-1.7200,1.1028,36.077,139.412,167.857,-14.83,6.56,0.4170,-0.4707,0.5369,-88.280,16.983,-11.417,-15.47,-45.38,0.3020,0.4850,-1.9010,-65.155,-37.801,43.212,-82.57,12.42,8.07,-19.09,-27.16
2563,2042.05,2529.60,3300.00,-0.2095,-1.1731,1.4978,117.665,138.481,-209.257,-11.05,8.52,0.6819,-0.6855,1.0076,3.781,78.387,21.316,-13.84,-45.07,0.9489,0.5798,-1.8756,31.349,222.566,152.617,-76.03,16.19,7.93,-18.96,-26.89
2578,2444.98,2951.87,3300.00,-0.0107,0.5540,1.6184,188.932,108.130,-317.288,-9.25,11.47,0.5054,-0.7568,1.1997,-9.563,10.860,10.354,-13.80,-44.95,0.7194,-0.1693,-0.9198,53.242,352.719,193.334,-70.14,13.25,7.67,-18.55,-26.22
2603,696.26,399.71,0.00,0.6675,1.6794,1.8127,191.527,78.053,-107.044,-7.46,16.78,0.6082,-1.1423,0.8291,-53.761,-34.483,-24.470,-14.83,-46.45,0.8639,-0.1550,-0.7618,81.013,298.245,-180.116,-62.41,11.60,7.24,-17.76,-24.99
2617,737.36,718.83,399.71,0.2815,1.1475,1.9999,-18.350,135.672,40.407,-5.49,16.78,0.5830,-0.9058,0.9036,-53.547,-15.765,-38.730,-15.25,-47.19,1.2993,0.8258,1.1132,30.662,208.596,-70.849,-59.01,12.54,6.66,-16.92,-23.58
2642,2206.45,2225.79,2880.95,-0.0505,-0.0667,1.9999,-25.618,-39.351,124.452,-6.31,15.78,0.6150,-0.7781,0.7542,-36.723,-46.834,-81.371,-16.68,-48.06,1.0502,-0.0948,0.6166,29.639,95.833,-4.208,-56.68,12.83,6.09,-15.92,-22.01
2657,1534.36,1275.68,1217.66,-0.1582,-0.3872,1.9999,31.924,-194.481,72.178,-8.88,15.70,0.7075,-0.6411,0.6833,-12.250,-47.262,-94.882,-17.76,-48.14,0.9304,-0.2205,0.6006,35.089,58.490,-1.704,-55.82,12.68,5.66,-14.75,-20.40
2682,1302.27,1612.53,1602.86,0.0249,0.1626,0.9697,-31.129,-340.863,-82.464,-17.02,14.82,0.5999,-0.2659,0.6882,79.353,-40.682,-78.088,-19.18,-45.67,0.9141,-0.2264,0.5319,-13.857,-34.808,-3.490,-56.71,11.63,5.73,-13.15,-18.88
2696,2009.01,2506.23,3054.21,0.2847,0.8220,0.1572,-48.488,-332.588,-85.120,-21.84,15.41,0.6052,-0.1753,0.7153,55.063,-42.193,-62.623,-20.19,-44.24,1.1118,0.1023,0.8302,-25.216,-50.640,5.746,-57.36,11.17,6.06,-11.37,-17.43
2721,903.37,468.21,0.00,0.4805,0.9524,-0.3032,-81.694,-151.076,58.269,-25.60,15.27,0.4568,-0.2295,0.3298,15.323,-50.911,-37.722,-22.00,-43.68,0.9077,-0.2711,0.7336,-67.919,-171.251,1.975,-61.37,8.89,6.50,-9.74,-16.24
2736,632.60,227.25,0.00,0.4653,0.5312,-0.3613,-64.411,-47.595,127.048,-26.49,16.52,0.4246,-0.0925,0.3147,9.582,-19.384,0.873,-22.88,-42.99,0.9313,-0.2682,0.1263,-67.231,-212.808,-13.093,-64.65,6.45,6.92,-8.39,-15.30
2761,2566.67,3300.00,3300.00,0.2632,-0.3811,-0.0325,-67.221,83.672,119.582,-24.60,12.65,0.4199,-0.1287,0.1899,14.834,26.830,39.087,-23.00,-42.45,0.5918,0.1072,-0.5447,-32.880,-170.594,-58.803,-68.47,8.89,7.16,-7.53,-14.69
2775,2274.14,2957.51,3300.00,0.1387,-0.5862,0.1619,-36.717,129.779,52.849,-22.51,10.38,0.3411,-0.1497,0.2654,9.933,42.845,59.011,-22.89,-42.05,0.7577,0.2854,-0.5276,-38.667,-117.709,-59.414,-69.82,11.19,7.25,-6.97,-14.22
2800,611.65,0.00,476.26,-0.0171,-0.3325,0.4531,-9.572,186.237,-63.563,-17.49,9.21,0.4229,-0.5127,0.5337,-1.792,75.792,85.957,-21.18,-42.13,1.0409,0.3114,-0.6199,-37.964,-103.144,2.113,-72.06,13.11,7.10,-6.96,-14.06
2815,1384.47,1762.42,1848.64,0.2947,0.0703,0.6899,77.146,217.122,-108.326,-14.51,10.24,0.4424,-0.4775,0.6306,-33.593,86.662,105.789,-20.11,-42.51,1.0083,-0.2006,-0.4924,-10.163,-80.457,-9.872,-73.01,9.55,6.83,-7.22,-14.05
2840,1142.71,597.14,796.19,-0.0513,0.6287,1.2195,55.955,263.641,-77.761,-7.76,11.94,0.4062,-0.5627,0.6499,-46.555,71.257,100.828,-18.48,-43.61,1.0702,0.2423,-0.7281,-41.170,-15.083,-26.361,-73.00,11.59,6.22,-7.94,-14.16
2854,391.65,0.00,0.00,-0.0398,0.7058,1.3406,52.459,232.695,-25.028,-4.23,13.02,0.3484,-0.6335,0.7170,-31.807,78.204,100.858,-17.38,-44.02,1.0067,0.0983,-0.5593,-25.293,21.619,0.723,-72.44,14.39,5.48,-8.82,-14.30
2879,2812.45,3300.00,3300.00,-0.1062,0.1672,1.5669,-7.984,224.573,40.025,1.43,12.68,0.4822,-1.0632,1.0083,-35.196,63.731,97.133,-15.84,-44.93,1.0239,0.1282,-0.3516,-12.758,70.077,8.052,-70.68,16.99,4.50,-9.91,-14.41
2894,3267.77,3300.00,3300.00,-0.2529,0.0132,1.8674,28.215,242.725,25.536,5.02,12.84,0.4727,-1.1235,1.0920,-32.509,38.799,60.018,-15.30,-45.42,0.9275,-0.1161,-0.1588,-22.544,65.574,-3.322,-69.89,13.45,3.38,-11.12,-14.50
2919,285.27,0.00,0.00,-0.1248,0.4292,1.9999,93.131,193.458,-40.006,9.70,15.09,0.6167,-0.9912,1.0588,-31.288,2.922,5.270,-15.39,-46.13,0.9755,0.1272,0.1646,6.707,34.917,-12.437,-69.20,14.10,2.00,-12.52,-14.52
2933,682.56,350.55,631.79,-0.3462,0.5283,1.9999,73.940,125.336,-14.708,11.49,16.14,0.2275,-1.1365,0.3547,-36.311,-15.277,10.385,-15.51,-47.18,1.0096,0.1938,-0.0037,21.791,11.894,-19.414,-69.23,15.95,0.59,-13.95,-14.54
2958,2054.14,2714.95,2222.56,-0.1370,0.1726,1.9999,-28.305,-115.321,33.597,8.52,15.23,0.4719,-0.7273,0.8289,-0.005,-5.964,-23.676,-15.81,-47.06,1.0859,0.1766,-0.4658,18.127,-33.648,-12.376,-69.97,19.26,-0.54,-15.13,-14.59
2973,1169.30,534.29,588.28,-0.1260,-0.1357,1.5891,-69.618,-177.031,-6.204,5.91,13.83,0.4072,-0.6680,0.6926,-14.463,-3.369,-20.333,-16.00,-47.21,1.1360,0.5178,-0.8721,7.456,46.138,12.265,-68.88,21.97,-1.42,-15.96,-14.54
2998,1686.67,2385.35,2220.15,0.0056,0.3271,0.7432,-128.869,-187.565,-61.013,1.22,10.89,0.4092,-0.5371,0.6572,27.903,-5.888,-14.791,-16.34,-46.37,0.9272,-0.0791,0.1196,2.692,64.795,42.830,-67.54,20.92,-1.93,-16.31,-14.38
3012,2536.04,3300.00,3300.00,0.2122,0.6692,0.4033,-88.060,-161.458,-48.158,-1.41,10.60,0.3850,-0.5044,0.5730,23.140,3.166,-5.646,-16.51,-45.94,0.9014,0.0492,0.0758,30.356,12.978,31.120,-67.69,21.60,-2.24,-16.47,-14.23
3037,626.96,0.00,0.00,0.3174,0.6514,0.1868,-54.976,-30.344,63.475,-2.63,10.52,0.3643,-0.4819,0.4966,41.995,12.464,11.759,-16.43,-44.88,0.9413,-0.2513,0.1659,12.967,-5.816,4.052,-67.93,20.35,-2.43,-16.54,-14.12
3052,543.96,398.10,0.00,0.1565,0.3071,0.2583,-68.595,53.977,115.491,-2.23,10.33,0.3269,-0.4556,0.4822,55.475,24.601,25.545,-16.27,-44.06,1.0742,0.0570,-0.4684,8.906,-20.823,-18.177,-68.19,23.53,-2.63,-16.66,-14.04
3077,2540.07,2812.45,3300.00,-0.1084,-0.6267,0.7671,33.985,164.191,139.888,1.95,10.17,0.4749,-0.6367,0.8425,35.094,8.906,25.560,-16.21,-43.06,0.9191,-0.1127,-0.1511,14.601,13.711,-30.452,-68.06,20.55,-3.10,-17.05,-13.96
3091,1821.25,1594.80,2861.61,-0.2095,-0.7034,1.3149,128.459,208.634,28.330,5.05,11.24,0.4336,-0.5945,0.8066,-21.120,-3.048,37.347,-16.40,-43.23,1.0803,0.0309,-0.1241,5.074,23.177,-31.551,-68.03,23.53,-3.77,-17.63,-13.87
3116,967.84,1019.41,917.07,-0.3406,0.2471,1.7698,136.566,93.916,-90.158,7.46,14.51,0.3359,-0.6582,0.7605,13.002,-16.819,33.072,-16.85,-42.86,1.1927,0.1332,-0.0299,-10.941,50.077,-29.277,-67.12,24.85,-4.59,-18.28,-13.69
3131,1819.63,2536.85,2673.04,0.5635,-0.4290,1.0403,-259.007,-67.198,-43.639,5.82,10.08,0.2344,-0.6790,0.6411,11.170,-18.849,40.232,-17.07,-42.78,1.0822,0.1196,-0.1011,-5.002,50.657,-10.620,-66.69,26.88,-5.25,-18.73,-13.48
3155,979.93,282.05,256.26,-0.0007,0.8579,1.2412,-51.724,-89.580,-36.158,3.52,9.31,0.3464,-0.6292,0.8267,4.468,-4.727,37.041,-17.21,-42.56,1.0076,0.1234,0.1469,-6.361,27.177,-0.513,-66.28,26.99,-5.72,-18.96,-13.25
3170,571.36,0.00,0.00,0.1899,-0.1763,1.1165,-264.702,-82.802,69.888,2.08,5.16,0.3284,-0.8247,0.8516,-9.899,-13.475,39.255,-17.37,-42.73,0.9667,0.1736,-0.0796,3.532,8.505,-1.475,-66.41,28.80,-6.06,-19.09,-13.03
3195,2657.73,3300.00,3300.00,0.1062,0.1079,0.3994,-284.625,-55.046,5.491,0.41,-1.54,0.2756,-0.6929,0.6804,0.773,-11.262,13.331,-17.61,-42.77,0.9940,0.0676,0.0210,1.715,-6.869,-3.338,-66.96,29.72,-6.28,-19.13,-12.84
3209,2439.34,3300.00,3300.00,-0.1240,-0.0256,0.4331,79.131,21.137,18.956,1.03,-0.45,0.3323,-0.6194,0.7407,9.582,-19.536,10.812,-17.92,-42.57,1.0375,0.1160,0.0586,-0.606,-12.961,-0.452,-67.47,30.38,-6.55,-19.24,-12.69
3234,571.36,111.21,0.00,1.1592,0.1196,1.9999,145.329,-102.237,-25.731,-2.09,3.17,0.4404,-0.5266,0.7517,27.720,-20.315,16.156,-18.57,-41.75,1.0229,0.0370,-0.1052,-6.789,-32.243,-7.918,-68.58,32.82,-6.63,-19.20,-12.57
3249,1148.35,1388.50,1303.08,0.1047,0.2964,0.7080,-66.595,-51.107,-44.662,-2.94,2.61,0.4417,-0.5562,0.8179,44.101,-23.918,23.973,-19.02,-40.97,0.9991,0.1177,-0.2120,-11.399,-19.434,-11.490,-69.01,35.02,-6.68,-19.14,-12.47
3274,1504.54,1182.20,1274.07,0.1145,0.2019,1.4661,17.237,30.695,13.979,-2.21,3.13,0.4082,-0.6089,0.7241,42.361,-5.384,44.034,-19.24,-39.91,1.0189,0.0708,-0.2081,-13.033,-16.197,-12.742,-69.59,37.22,-6.78,-19.18,-12.39
3288,822.78,40.29,78.97,-0.0100,0.1226,0.9839,-2.060,56.496,18.086,-1.35,3.18,0.3071,-0.6243,0.6272,33.872,-29.323,46.202,-19.65,-39.53,1.0690,0.1853,-0.1744,-6.254,-2.701,-7.185,-69.76,39.05,-6.97,-19.28,-12.31
3313,2176.63,3163.81,3032.45,-0.0762,0.0557,1.1199,6.016,-50.099,20.208,-2.47,3.32,0.1663,-0.5840,0.7869,43.704,-26.956,32.812,-20.11,-38.40,0.9707,0.1774,-0.1328,-1.827,-7.022,-0.452,-70.08,40.77,-7.10,-19.32,-12.22
3328,2809.23,3300.00,3300.00,0.0508,0.0720,1.2432,-7.831,-1.015,-6.326,-2.48,3.21,0.1689,-0.5664,0.8186,4.056,-38.224,37.759,-20.45,-38.27,0.9493,0.1697,-0.1266,2.860,-10.488,5.914,-70.38,42.53,-7.25,-19.38,-12.13
3353,440.00,0.00,0.00,-0.0486,0.1223,1.1450,13.619,26.786,5.017,-1.73,3.60,0.2463,-0.5679,0.7239,15.140,-22.987,32.308,-20.90,-37.90,1.0829,0.0718,0.0107,0.769,-19.526,6.723,-71.17,43.32,-7.46,-19.54,-12.08
3367,603.59,112.01,132.16,-0.0093,-0.0178,1.1548,-3.602,8.527,18.269,-1.57,3.46,0.3196,-0.5066,0.6833,3.414,-32.651,42.797,-21.36,-37.82,1.0374,0.0109,-0.0922,-3.644,-24.762,5.273,-71.80,45.87,-7.71,-19.75,-12.04
3392,2283.00,3215.38,3175.90,0.0696,0.0161,1.2400,-4.381,-28.588,-4.403,-2.30,3.30,0.3645,-0.4221,0.7834,35.766,-22.849,50.919,-21.93,-36.76,1.0173,0.0981,-0.2389,0.769,-16.014,6.693,-72.27,48.12,-7.93,-19.92,-11.99
3407,1433.63,1066.15,1136.26,0.0681,0.0603,1.2278,2.016,15.977,1.552,-2.08,3.32,0.2954,-0.5588,0.7642,-16.234,-30.208,78.965,-22.28,-36.98,0.9883,0.0386,-0.1428,-1.125,-14.549,3.517,-72.67,50.44,-8.17,-20.12,-11.95
3432,1340.15,1761.61,1688.28,-0.0295,0.0771,1.1797,0.947,7.489,-1.028,-1.83,3.35,0.1355,-0.5378,0.6118,4.605,-29.033,79.713,-22.73,-36.96,1.1077,0.2133,-0.7167,38.326,23.711,29.471,-71.76,53.63,-8.45,-20.27,-11.82
3446,2287.03,3300.00,3296.78,-0.0117,0.0403,1.1763,-6.076,-15.580,-5.364,-2.01,3.24,0.1543,-0.4272,0.6521,33.353,-8.620,83.560,-22.62,-36.41,0.8937,-0.0189,0.1287,-10.239,12.917,-12.147,-71.77,52.25,-8.68,-20.39,-11.71
3471,655.16,0.00,0.00,0.0730,0.0601,1.2520,0.535,-1.031,-2.769,-2.06,3.24,1.7502,-2.0000,1.3088,7.262,-34.651,49.637,-23.74,-36.64,1.0002,-0.0630,0.0098,-0.636,-4.579,-1.399,-72.17,49.56,-8.97,-20.53,-11.55
3486,404.54,0.00,0.00,0.0125,0.0972,1.1238,0.276,22.115,-0.189,-1.71,3.28,0.7354,-1.1799,0.9114,-32.616,-122.880,77.118,-25.55,-37.42,0.9872,0.1357,-0.1675,-2.086,-11.190,-14.284,-72.44,51.36,-9.40,-20.70,-11.30
3511,2847.11,3300.00,3300.00,-0.0190,0.0356,1.1479,-2.457,-10.634,-2.845,-1.92,3.19,-0.8599,-1.0854,0.3926,8.666,-26.727,25.789,-24.95,-37.86,1.0404,0.0862,-0.2098,-2.926,-1.633,-3.536,-72.59,53.42,-9.74,-20.86,-11.12
3525,2174.21,3197.66,2952.67,0.0596,0.0415,1.2444,-3.572,-13.702,3.292,-2.13,3.11,-0.4167,-0.8840,0.4856,102.590,59.532,-104.760,-23.15,-36.86,1.0350,0.1195,-0.1160,-3.262,-2.106,-3.857,-72.78,54.99,-9.91,-21.00,-11.09
3550,717.22,379.56,323.96,-0.0242,0.0637,1.2354,4.703,21.672,1.857,-1.54,3.22,0.1223,-0.0366,-0.1060,-19.944,42.998,-122.638,-22.59,-39.83,1.1010,0.2339,-0.4810,-5.842,19.696,-0.529,-72.13,56.82,-10.07,-21.13,-11.06
3565,1586.74,2230.62,2093.63,-0.0374,-0.0034,1.0283,-8.457,24.466,4.880,-1.11,3.03,0.8591,0.0647,0.3694,-77.379,38.296,-60.241,-22.92,-39.94,1.1108,0.1829,-0.4492,-7.857,50.719,16.968,-71.29,58.73,-10.28,-21.22,-10.94
3590,1124.98,555.24,547.18,0.0547,0.0654,1.1636,-1.419,-19.931,-0.952,-1.63,3.00,0.7915,0.0203,0.4031,-14.143,49.929,113.789,-22.51,-39.43,1.0276,0.2372,-0.1716,-1.919,72.291,41.334,-69.59,60.03,-10.40,-21.15,-10.75
3604,574.58,0.00,0.00,0.1177,-0.0098,1.2124,-2.854,-12.954,3.323,-1.89,2.89,0.1028,-2.0000,0.9282,176.819,25.166,110.034,-21.75,-37.42,0.8849,-0.0648,-0.1072,15.852,90.474,30.525,-68.55,56.08,-10.45,-20.99,-10.54
3629,2623.08,3300.00,3300.00,0.0571,0.0181,1.2117,3.512,15.412,-7.746,-1.54,2.94,-0.1401,-0.6689,0.6660,-125.868,61.578,75.438,-19.65,-40.64,1.0205,-0.0043,0.2922,47.242,27.146,17.304,-67.99,56.09,-10.37,-20.83,-10.46
3644,2640.81,3300.00,3300.00,-0.0178,0.1292,1.1299,5.405,17.366,10.834,-1.24,3.09,-0.1387,-0.3342,0.5691,-17.089,58.647,-43.936,-18.18,-40.68,0.9891,-0.0433,0.7090,33.700,6.199,10.617,-67.63,55.38,-10.21,-20.68,-10.47
3668,485.13,0.00,0.00,0.1191,0.0503,1.2849,9.924,-17.550,-6.647,-1.75,3.31,0.0972,-0.3274,0.6411,-9.792,102.631,-10.150,-15.48,-40.65,0.8273,-0.3762,1.2031,15.746,-165.648,-30.834,-70.97,54.31,-9.84,-20.74,-10.89
3683,959.78,722.05,908.21,0.0457,-0.0083,1.2314,-27.908,9.595,5.185,-1.62,2.84,0.1362,0.1970,0.1897,105.155,73.670,-71.692,-14.65,-37.41,0.9193,-0.1792,0.4066,-16.285,-235.709,-54.605,-74.19,52.51,-9.45,-21.02,-11.57
3708,1688.28,1184.62,1661.69,0.0627,0.2021,1.2710,11.237,13.076,-3.700,-1.32,3.24,0.3955,-0.1272,0.9993,102.743,-73.063,-27.066,-16.56,-34.31,0.8787,0.6327,-1.1123,-31.598,-294.121,-76.666,-80.56,53.70,-9.24,-21.75,-12.52
3722,854.21,0.00,199.05,-0.0215,0.0535,0.8740,-18.900,-4.557,3.384,-1.33,2.97,0.1306,-1.6060,1.7969,-115.715,26.662,72.705,-15.91,-36.11,0.9364,0.4069,-1.3716,-18.544,-168.213,-14.788,-82.02,55.63,-9.00,-22.54,-13.54
3747,2138.75,2619.85,2886.59,0.0137,0.0540,1.2114,-4.182,2.756,-7.868,-1.25,2.86,0.0439,-0.7178,0.9163,-62.662,-23.292,52.660,-16.21,-37.67,0.7251,0.5519,-1.6575,3.227,13.803,-5.597,-80.49,57.83,-8.80,-23.16,-14.37
3762,2988.94,3300.00,3300.00,0.0339,-0.0352,1.2170,4.215,2.069,15.262,-1.23,2.83,-0.0244,-0.3765,0.5320,63.292,-44.773,39.835,-16.48,-36.72,0.8425,0.4395,-1.1954,17.440,112.230,37.914,-77.95,60.12,-8.63,-23.57,-14.94
3786,373.92,0.00,0.00,-0.0112,0.0723,1.1514,-2.778,-0.710,1.124,-1.21,2.78,0.1545,-0.4658,0.6440,-33.899,-45.491,45.362,-17.48,-37.53,0.9222,0.2998,-0.8425,20.677,232.123,52.479,-71.65,62.63,-8.55,-23.51,-14.96
3801,515.75,1767.25,0.00,0.0447,-0.0276,1.1660,-5.282,-6.008,2.483,-1.32,2.62,0.1809,-0.3442,0.4912,19.079,-44.666,9.209,-18.10,-37.21,0.9648,0.1241,-0.3058,26.692,297.787,84.861,-67.41,64.91,-8.51,-23.15,-14.64
3826,2337.00,3300.00,3300.00,0.0835,0.0896,1.2249,1.573,5.229,10.697,-1.24,2.69,0.2085,-0.3948,0.5369,16.956,-23.246,40.889,-18.65,-36.78,0.9791,-0.1342,0.1433,117.425,199.146,47.746,-62.78,65.61,-8.52,-22.49,-13.98
3841,1433.63,1199.12,1141.10,-0.0286,0.0491,1.1777,2.367,10.115,-5.486,-1.04,2.72,0.2415,-0.9468,0.9390,7.201,-32.880,35.377,-18.95,-36.85,0.8630,-0.3051,0.6539,71.303,198.154,20.983,-59.69,64.82,-8.56,-21.68,-13.13
3866,1186.23,1573.85,1313.55,-0.1235,0.1223,1.1943,0.718,-5.840,2.254,-1.05,2.80,0.0322,-1.8088,-0.3918,-233.547,-180.926,-26.745,-23.08,-43.95,1.3932,-0.5165,1.0919,32.341,115.619,-7.643,-56.61,63.82,-8.88,-20.71,-11.83
3880,2075.90,2887.40,3044.54,0.0679,0.1614,1.3562,10.825,16.832,21.353,-0.84,3.03,-0.0610,-1.2205,-0.0618,-279.486,130.830,-58.287,-20.70,-48.91,0.5964,0.2059,1.0496,7.608,41.467,35.762,-55.47,62.87,-9.03,-19.74,-10.71
3905,863.88,117.66,0.00,-0.1057,0.0806,1.0698,-6.976,9.305,5.399,-0.49,2.89,0.3047,-0.9866,0.7991,170.804,146.265,-158.623,-16.96,-44.76,0.9542,0.0055,1.0144,-29.720,-90.686,-22.819,-57.45,60.89,-8.94,-19.01,-10.07
3920,505.27,0.00,0.00,0.1001,0.0508,1.0334,2.749,-6.038,-13.517,-0.67,2.93,0.4194,0.2256,0.0437,13.781,209.089,-130.348,-14.87,-42.09,0.9960,-0.1302,0.6615,-48.468,-166.640,-37.582,-59.80,58.76,-8.69,-18.47,-9.78
3945,2784.25,3300.00,3300.00,0.2568,0.0100,1.2214,-1.526,-7.351,23.842,-1.08,2.84,-0.0371,0.3716,0.7368,-35.303,108.540,-182.058,-11.88,-41.57,0.7599,-0.0997,-0.5206,-57.140,-195.648,-86.483,-64.47,52.81,-8.22,-18.27,-10.05
3959,2394.21,3300.00,3300.00,-0.0203,0.0957,1.3384,-7.785,-5.748,-4.830,-1.12,2.75,0.2395,-0.5967,1.7437,343.338,-16.498,-19.478,-12.02,-36.20,1.0531,0.5646,-0.9795,-68.819,-95.785,-84.605,-65.41,53.77,-7.79,-18.15,-10.36
3984,597.95,4.84,0.00,-0.0796,0.0303,1.1338,-17.175,4.725,3.216,-0.90,2.31,-0.1318,-0.3020,1.0398,161.079,-66.682,46.553,-13.27,-31.87,1.0831,0.5270,-0.9734,2.494,-32.869,-4.376,-65.79,55.79,-7.50,-18.08,-10.59
3999,1366.74,2030.77,1584.32,-0.0427,-0.2322,1.3350,2.108,-2.069,42.712,-0.88,2.10,-0.5181,-0.7241,1.2070,-205.471,71.578,115.973,-11.58,-34.78,1.1261,0.5002,-0.9041,-6.835,51.253,38.220,-64.69,57.59,-7.10,-17.94,-10.84
4024,1299.85,836.48,745.42,0.0210,-0.1169,1.2622,4.535,7.519,39.414,-0.70,2.06,0.5635,-1.1042,0.8347,-45.166,71.303,53.545,-10.06,-36.24,1.1184,0.1725,-0.5314,29.532,139.543,44.204,-61.27,60.40,-6.65,-17.58,-10.94
4038,701.90,0.00,0.00,0.2212,0.1348,1.3711,9.482,6.191,-19.319,-0.78,2.27,0.2573,-0.9375,1.1016,246.911,-45.369,-70.623,-10.70,-32.80,1.2188,0.2136,-0.2949,59.486,178.841,57.441,-58.96,62.92,-6.26,-17.08,-10.82
4063,2371.65,3300.00,3300.00,0.0823,0.0271,1.1482,-3.694,0.359,-1.151,-0.83,2.16,0.3735,-0.8142,1.1321,96.636,-102.086,-111.814,-13.28,-30.51,0.7961,-0.2605,0.0483,79.272,173.390,56.189,-54.99,62.01,-6.07,-16.34,-10.26
4078,2617.44,3300.00,3300.00,0.0520,0.0356,1.1924,1.008,-9.336,2.208,-1.00,2.16,0.3008,-0.6733,1.1926,8.895,-47.765,-102.531,-13.94,-30.36,0.8524,-0.1649,0.3754,51.456,150.016,30.983,-53.03,61.03,-5.94,-15.49,-9.55
4102,542.34,139.41,0.00,0.0325,0.1040,1.1970,-0.366,23.000,13.475,-0.45,2.21,0.1143,-0.3555,1.0159,48.254,-119.353,-107.249,-16.69,-28.96,0.7611,-0.9213,0.5865,6.692,78.734,72.143,-50.75,58.82,-6.04,-14.59,-8.54
4117,823.59,887.25,343.30,-0.0330,0.0120,1.1960,-0.076,-4.756,-0.051,-0.48,2.18,0.1711,-0.2014,0.8562,-32.189,-111.704,-65.157,-18.17,-29.11,0.9468,-0.0138,1.1047,28.020,50.062,-57.811,-49.84,58.03,-6.24,-13.68,-7.44
4142,1909.89,1819.63,2427.25,-0.0129,0.0239,1.1926,-0.305,-12.359,-0.418,-0.76,2.15,0.0442,-0.0408,0.7168,-37.746,-133.781,-35.722,-21.13,-29.51,0.8383,-0.3683,0.7905,-17.247,-107.953,12.067,-52.35,55.95,-6.61,-12.99,-6.37
4156,1146.74,532.67,395.68,0.0537,0.0427,1.2361,-0.091,-2.618,-1.166,-0.83,2.14,0.0151,-0.0859,0.4761,-50.906,-186.865,-13.066,-23.41,-29.85,0.9312,-0.0079,0.9277,-43.919,-156.579,-25.475,-54.44,54.19,-7.12,-12.49,-5.37
4181,1771.28,2399.85,2498.97,-0.0120,0.0383,1.1794,-0.015,5.107,-2.006,-0.68,2.14,0.1494,0.0210,0.2007,-62.036,-111.414,15.606,-26.38,-30.64,0.8857,0.0819,0.2443,-122.117,-257.633,-47.719,-61.08,50.51,-7.80,-12.50,-4.70
4196,2634.36,3300.00,3300.00,0.0151,0.0464,1.2036,-0.091,-3.824,2.865,-0.73,2.14,0.2280,0.1340,0.1777,9.506,-47.689,30.721,-27.45,-29.15,0.7014,-0.1622,-0.6503,-84.651,-260.701,-75.582,-64.50,44.98,-8.51,-12.75,-4.24
4221,494.80,0.00,0.00,0.0415,0.0540,1.2292,0.016,-5.260,-0.937,-0.89,2.15,0.6489,-0.0291,0.0181,13.399,-9.078,120.171,-28.86,-29.40,1.0798,0.5004,-1.0006,-31.506,-146.823,-53.903,-67.67,46.38,-9.25,-13.19,-3.93
4235,472.23,0.00,0.00,-0.0083,0.0659,1.1772,0.077,3.137,-1.486,-0.81,2.17,0.1028,-0.2288,0.2437,3.567,48.311,181.301,-27.94,-29.63,1.1819,0.5693,-1.3187,-7.552,-58.442,-6.696,-67.94,48.48,-9.89,-13.62,-3.73
4260,2514.29,3300.00,3300.00,0.0112,0.0371,1.1880,0.321,-2.954,-12.112,-0.88,2.17,0.1121,-0.9143,0.4968,120.773,154.631,195.591,-23.75,-27.34,1.0144,0.2991,-0.8547,-5.583,96.001,27.823,-65.21,50.59,-10.18,-13.83,-3.65
4274,1583.52,1609.30,1482.78,0.0488,0.0295,1.2166,-0.045,-1.794,2.376,-0.93,2.15,0.0505,-1.2576,0.9226,152.697,191.334,158.583,-20.59,-25.69,1.0002,0.2858,-0.9648,8.662,143.512,40.296,-62.76,52.97,-10.23,-13.85,-3.62
4299,1199.12,1581.10,1152.38,0.0413,0.0515,1.2332,0.031,3.672,-0.967,-0.86,2.16,0.1819,-1.4419,1.7322,170.773,197.257,5.866,-15.46,-21.80,0.9313,-0.2845,-0.1904,54.417,210.245,44.968,-57.77,50.76,-9.92,-13.52,-3.60
4314,2041.25,2843.88,3192.82,-0.0310,0.0457,1.1868,0.215,8.069,0.712,-0.70,2.16,0.3379,-1.3713,1.9999,104.300,143.120,-66.088,-13.24,-20.55,1.0144,0.0002,0.3412,89.730,201.085,16.357,-55.15,51.04,-9.48,-13.04,-3.56
4339,863.88,203.08,0.00,-0.0747,0.0916,1.1914,0.184,7.031,-1.105,-0.44,2.21,0.5737,-0.9563,1.9999,7.094,-91.277,-148.730,-15.49,-20.48,0.8785,-0.2318,0.6282,86.799,152.215,12.617,-51.40,51.72,-9.26,-12.35,-3.10
4353,566.52,0.00,0.00,-0.0447,0.0386,1.2283,0.398,5.046,2.956,-0.32,2.21,0.3586,-0.6921,1.8347,-59.257,-246.361,-142.348,-18.90,-21.33,0.9618,0.0868,0.6952,35.776,115.818,-7.780,-49.80,51.34,-9.29,-11.61,-2.32
4378,2627.91,3300.00,3300.00,-0.0671,0.0762,1.1309,-5.908,-1.061,6.407,-0.27,2.10,0.2549,-0.4028,0.7073,-112.036,-315.048,-159.554,-26.53,-24.22,0.9366,-0.0594,0.8096,3.104,31.955,6.754,-49.00,50.31,-9.86,-10.86,-1.00
4393,2256.41,2385.35,3300.00,0.0266,0.0608,1.1868,-0.946,0.053,13.521,-0.29,2.10,0.1003,-0.1709,0.4797,-106.128,-289.674,-157.081,-30.35,-25.64,0.9869,-0.0406,0.6500,-5.812,-12.365,1.517,-49.33,49.15,-10.66,-10.19,0.47
4418,707.55,593.11,0.00,0.0659,0.0979,1.1772,0.169,5.244,13.842,-0.22,2.16,0.2285,0.2695,-0.0315,-93.960,-210.895,-144.760,-35.67,-25.48,1.0414,0.0162,0.8499,5.349,-72.442,5.563,-51.12,48.32,-11.78,-9.70,2.08
4432,1441.69,1878.46,1810.77,0.0295,0.0298,1.1489,4.291,-3.473,-0.632,-0.30,2.20,0.3115,0.4138,-0.1611,-76.005,-137.201,-93.279,-37.61,-23.83,0.9279,0.0566,0.9761,-7.628,-159.327,3.975,-53.23,47.31,-12.95,-9.39,3.56
4457,1224.10,600.37,686.59,0.0576,-0.0117,1.1890,0.321,-4.908,12.346,-0.47,2.16,0.3169,0.5095,-0.1340,81.185,28.219,12.705,-36.80,-19.28,0.9749,0.1041,0.5614,-18.315,-266.854,-8.483,-59.85,46.13,-13.97,-9.54,4.43
4471,627.77,0.00,0.00,0.0200,0.0476,1.1790,0.215,3.870,-0.922,-0.42,2.16,0.2598,0.3918,-0.1006,7.811,43.318,116.400,-36.10,-16.70,0.8724,0.1105,-0.2930,-64.483,-294.610,-23.689,-64.26,47.47,-14.87,-10.00,4.87
4496,2605.35,3300.00,3300.00,-0.0371,0.0308,1.1821,-0.640,-3.763,-2.570,-0.47,2.13,0.1833,0.0181,0.1074,38.040,141.181,181.392,-33.12,-15.25,0.7610,0.1644,-1.4449,-53.705,-176.778,-17.231,-67.83,48.68,-15.50,-10.67,4.83
4511,2797.95,3300.00,3300.00,0.0349,0.0432,1.2058,-0.091,-2.389,-0.097,-0.53,2.13,0.2241,-0.2698,0.3342,129.201,206.799,196.018,-30.06,-13.88,0.9663,0.2925,-1.1196,-14.728,-85.114,-4.987,-68.49,50.81,-15.87,-11.34,4.52
4536,430.33,0.00,0.00,0.0750,0.0220,1.1951,-0.656,1.809,-0.830,-0.54,2.09,0.3687,-1.1523,1.2593,92.727,243.914,193.225,-23.77,-12.19,1.1104,0.5315,-1.4438,0.478,88.871,6.082,-65.67,53.00,-15.76,-11.76,4.00
4550,855.02,806.67,585.05,-0.0320,0.0476,1.1865,0.596,5.718,-3.914,-0.42,2.11,0.3977,-1.3484,1.6785,133.857,203.776,116.415,-20.61,-10.82,0.9890,0.0861,-0.8706,6.204,159.344,44.754,-63.06,55.51,-15.46,-11.98,3.47
4575,1771.28,1973.55,1921.17,0.0002,0.0803,1.1768,-0.457,-0.954,-0.280,-0.44,2.13,0.4141,-1.1633,1.8484,-22.463,52.952,-10.638,-19.12,-11.79,0.9579,0.0793,-0.4344,49.822,196.032,51.670,-58.34,59.01,-15.07,-11.86,3.21
4590,1021.03,426.30,249.01,0.0605,0.0601,1.2271,-1.450,-7.931,3.521,-0.60,2.12,0.3857,-0.9597,1.7400,-120.479,-50.956,-63.859,-19.68,-13.85,1.0718,-0.2328,0.1243,61.944,185.467,26.601,-56.05,57.47,-14.73,-11.57,3.17
4614,1869.60,2568.28,2709.30,0.0425,0.0710,1.1687,1.069,0.191,5.292,-0.62,2.18,0.3735,-0.5037,1.2935,-76.112,-115.201,-72.195,-22.41,-15.86,0.7930,-0.1107,0.3062,76.143,178.505,43.151,-51.92,57.79,-14.61,-11.00,3.60
4629,2573.92,3300.00,3300.00,-0.0361,-0.0374,1.2026,-2.503,2.557,9.674,-0.54,2.06,0.4050,-0.3823,0.9160,-34.845,-126.834,-65.890,-24.21,-16.49,0.6897,-0.3096,0.3729,42.601,196.596,-16.681,-49.18,56.44,-14.63,-10.30,4.33
4654,625.35,28.21,0.00,0.0337,0.0352,1.2131,0.245,0.206,-0.204,-0.55,2.06,0.3000,-0.3879,0.5291,-21.334,-116.422,-26.104,-27.06,-17.41,0.9301,-0.0552,0.8925,34.799,107.070,-23.490,-46.50,56.10,-14.84,-9.45,5.39
4668,606.01,394.07,0.00,0.0156,0.0579,1.1990,0.077,-1.198,2.651,-0.58,2.08,0.2871,-0.4043,0.4121,60.788,-56.437,-18.241,-27.86,-17.09,0.9468,-0.0461,0.7195,21.089,51.192,-15.506,-45.89,55.20,-15.10,-8.62,6.48
4693,2358.75,2579.56,3300.00,0.0071,0.0645,1.1870,0.489,8.206,13.750,-0.37,2.11,0.3538,-0.4133,0.4556,37.964,-16.819,-20.165,-28.30,-16.67,0.8887,0.0924,1.2239,-5.430,-83.190,6.189,-47.71,54.05,-15.38,-7.99,7.39
4708,1567.40,1216.85,1408.64,-0.0361,0.0757,1.1960,0.199,3.824,2.498,-0.28,2.14,0.3669,-0.3777,0.6108,30.285,6.998,-29.096,-28.18,-16.54,0.8721,-0.1290,0.9921,-26.483,-144.304,-13.628,-49.64,52.44,-15.64,-7.54,8.10
4733,1227.33,1560.15,1361.90,0.0466,0.0649,1.2427,-0.488,-4.725,-2.922,-0.43,2.15,0.4717,-0.1899,0.6802,32.498,22.830,-21.157,-27.73,-15.72,1.0122,0.3047,0.0728,-56.926,-263.434,17.685,-56.53,51.54,-15.84,-7.60,8.24
4747,2126.67,2993.77,3292.75,0.0613,0.0229,1.2063,-1.541,1.626,-4.357,-0.45,2.10,0.4741,-0.1062,0.6716,-20.311,-2.529,-2.745,-27.91,-15.88,0.6527,-0.3112,-1.0344,-15.094,-242.991,-10.086,-59.48,47.03,-16.04,-7.85,8.18
4772,766.37,0.00,0.00,-0.0166,0.0437,1.1970,-0.106,0.573,6.315,-0.42,2.10,0.4729,-0.0769,0.5425,-71.746,-18.361,51.759,-28.62,-17.47,1.0288,0.3971,-1.2676,-3.460,-68.518,1.838,-60.71,49.26,-16.27,-8.18,8.09
4787,473.85,0.00,0.00,0.0059,0.0603,1.1970,-0.137,-5.626,-2.326,-0.49,2.11,0.3157,-0.1113,0.4604,-59.288,-11.246,81.454,-28.88,-18.24,0.9504,0.1566,-1.3757,-2.499,33.085,-9.826,-59.72,51.70,-16.50,-8.41,8.09
4812,2698.02,3300.00,3300.00,0.0718,0.0588,1.1951,0.260,-5.779,-1.028,-0.69,2.13,0.2356,-0.3528,0.2725,-64.876,17.151,119.118,-28.44,-20.50,1.0667,0.2906,-0.7458,11.517,185.589,18.708,-55.05,54.13,-16.67,-8.29,8.38
4826,2167.77,2337.80,3300.00,0.0498,0.0618,1.1758,3.237,-3.000,3.048,-0.77,2.20,0.2297,-0.5779,0.3320,18.071,95.105,124.079,-26.90,-21.04,0.9612,-0.0245,-0.4192,43.257,188.169,-1.399,-52.60,50.13,-16.72,-7.99,8.72
4851,776.04,778.46,0.00,0.0479,0.0818,1.1980,-2.045,-3.733,11.659,-0.89,2.18,0.1111,-0.8284,0.8555,86.529,175.532,109.240,-22.19,-19.39,1.0553,0.2817,0.2721,54.112,181.406,44.449,-48.53,51.36,-16.42,-7.43,9.00
4865,1498.90,1968.72,2094.43,-0.0586,0.0120,1.1714,0.871,2.298,2.788,-0.78,2.16,0.1428,-0.9238,1.2227,61.399,171.441,76.217,-19.41,-18.87,0.7867,-0.3512,0.4923,91.440,200.596,20.586,-45.75,50.93,-15.96,-6.71,9.25
4891,1302.27,846.96,805.05,-0.0051,0.0435,1.1714,0.016,6.679,-1.074,-0.60,2.16,0.3206,-1.0439,1.7104,69.995,129.028,21.270,-16.05,-17.41,1.1766,0.1740,0.7417,92.356,121.421,3.533,-43.00,52.43,-15.31,-5.87,9.44
4905,775.24,236.12,0.00,0.0435,0.0415,1.2500,0.016,-3.275,4.681,-0.67,2.16,0.3767,-1.0210,1.9546,86.071,64.769,-8.333,-14.99,-16.38,0.6437,-0.0378,0.1210,77.944,65.451,35.395,-42.78,52.15,-14.62,-5.06,9.56
4930,2337.00,3087.25,3300.00,0.0222,0.0544,1.2141,0.108,0.435,4.315,-0.67,2.17,0.4124,-0.9453,1.8491,8.147,-107.903,-53.142,-17.54,-16.39,0.7358,-0.2627,0.9452,46.249,83.054,-60.193,-40.64,51.92,-14.16,-4.16,10.00
4944,2513.48,2901.10,3300.00,-0.0515,0.0781,1.2095,-0.350,0.847,9.460,-0.60,2.19,0.3040,-0.8162,1.4487,-47.044,-190.575,-74.989,-20.12,-17.32,0.9088,0.0170,1.4885,13.532,-29.114,-37.597,-40.88,51.09,-13.92,-3.35,10.57
4969,589.08,279.63,0.00,0.0059,0.0635,1.1873,0.138,0.771,0.391,-0.57,2.21,0.1406,-0.4988,0.6577,-66.173,-222.605,-105.142,-25.33,-19.33,1.1572,0.2158,1.1714,-21.842,-114.381,-21.704,-43.73,49.75,-14.06,-2.79,11.27
4984,885.64,998.46,151.50,0.0042,0.0740,1.2195,-0.763,3.550,0.529,-0.51,2.23,0.1228,-0.3953,0.4924,-59.502,-176.926,-104.684,-27.57,-20.57,1.0547,0.3448,1.2051,-28.621,-187.938,23.624,-46.34,48.66,-14.36,-2.46,11.89
5009,1834.95,1656.04,2385.35,0.0315,0.0251,1.1833,-0.366,9.107,1.964,-0.31,2.20,0.2290,-0.1587,0.2732,-72.036,-127.903,-104.501,-30.85,-22.52,0.8285,0.0983,-0.0939,-87.934,-298.625,78.662,-54.30,48.22,-14.87,-2.73,12.15
5023,1106.45,467.40,329.60,0.0530,0.0339,1.2100,1.848,-4.542,-2.112,-0.42,2.21,0.2654,-0.0295,0.2056,-44.631,-111.353,-99.020,-32.87,-22.87,0.7792,-0.2578,-0.7319,-32.682,-277.190,16.342,-58.07,43.58,-15.49,-3.23,12.26
5048,1758.39,2385.35,2482.05,0.0110,0.0554,1.1873,-0.686,-2.878,-3.288,-0.49,2.21,0.3557,0.1799,0.1125,-24.021,-30.697,-50.119,-34.14,-21.84,0.9248,0.2189,-1.3926,-29.491,-145.801,14.006,-61.15,45.41,-16.14,-3.91,12.23
5063,2577.95,3300.00,3300.00,0.0137,0.0581,1.1868,-0.671,4.863,-4.815,-0.43,2.21,0.4167,0.2463,0.0752,-34.479,17.181,5.133,-34.38,-20.43,0.8744,-0.0027,-1.0544,8.936,-11.007,6.159,-60.88,41.03,-16.77,-4.52,12.25
5088,576.19,0.00,0.00,0.0386,0.0347,1.1826,2.306,0.725,-1.929,-0.44,2.25,0.4304,0.1128,0.1521,-1.685,68.693,104.522,-33.35,-19.34,0.9810,0.1321,-0.9314,1.654,72.703,8.464,-58.82,43.69,-17.28,-4.95,12.33
5102,569.74,299.78,0.00,0.0342,0.0513,1.2239,2.596,-7.153,5.078,-0.56,2.29,0.3472,-0.1299,0.3379,50.193,123.166,162.583,-31.81,-18.66,1.0072,-0.0343,-0.7040,24.921,144.230,0.281,-56.69,39.62,-17.65,-5.19,12.45
5117,990.40,1204.76,337.66,0.0635,0.1160,1.1570,-1.373,2.359,9.078,-0.58,2.34,0.2268,-0.4382,0.5371,90.163,167.410,192.812,-29.12,-17.77,1.1608,-0.0983,-0.1865,39.242,174.825,3.548,-54.63,36.35,-17.79,-5.27,12.52
5142,1706.01,1444.91,2054.14,0.0015,0.0645,1.1833,-2.274,-3.229,7.765,-0.65,2.30,0.0732,-0.8682,0.8596,63.231,174.586,161.805,-24.35,-16.78,1.0214,0.0621,0.2795,41.517,196.932,-14.345,-50.23,36.89,-17.59,-5.03,12.56
5156,1064.54,520.59,244.98,-0.0105,0.0054,1.1741,1.619,-5.321,2.101,-0.70,2.29,0.0361,-0.9788,1.1431,69.048,187.761,117.973,-21.18,-16.26,0.9984,0.0348,0.4603,29.333,168.719,4.113,-48.09,36.66,-17.17,-4.65,12.52
5181,1902.64,2481.25,2956.70,0.0359,0.0208,1.2307,-0.015,-0.099,1.781,-0.72,2.26,0.2722,-1.1455,1.8130,87.643,171.990,44.919,-16.73,-14.45,0.8582,-0.0297,0.7133,21.608,131.787,3.258,-44.93,36.40,-16.48,-4.08,12.40
5196,2509.45,3244.40,3300.00,0.0037,0.0535,1.1836,0.031,9.794,2.346,-0.57,2.27,0.3782,-1.1506,1.9999,34.010,84.525,4.370,-15.37,-14.27,0.9150,0.0789,0.6877,13.211,70.871,-9.139,-44.08,35.99,-15.74,-3.50,12.25
5221,644.69,248.21,0.00,-0.0073,0.0449,1.2039,0.398,-0.374,-0.677,-0.56,2.27,0.3794,-0.9973,1.8477,-44.860,-96.620,-56.150,-17.62,-15.64,1.0024,0.0640,0.3719,0.280,39.879,-2.712,-43.62,35.48,-15.22,-2.92,12.29
5235,703.52,627.77,0.00,0.0239,0.0535,1.2026,-0.457,-6.374,2.285,-0.67,2.27,0.2461,-0.8074,1.3909,-64.067,-175.888,-82.287,-19.95,-16.85,0.9530,0.1588,0.6125,-8.361,22.856,9.823,-43.55,34.94,-14.89,-2.38,12.51
5260,2230.62,2266.89,3300.00,0.0310,0.0430,1.2126,0.169,3.672,2.010,-0.59,2.27,0.1082,-0.4915,0.5720,-95.853,-209.246,-101.463,-24.79,-19.65,1.0240,0.0809,0.6632,-14.957,-45.007,17.029,-44.91,34.01,-14.92,-1.97,12.95
5275,1469.89,1128.21,1121.76,-0.0161,0.0439,1.1748,0.062,7.031,3.460,-0.46,2.27,0.1465,-0.4124,0.4028,-52.494,-141.078,-94.317,-26.61,-20.93,1.0349,0.1580,0.6783,-17.170,-83.526,31.304,-46.33,33.35,-15.09,-1.70,13.39
5299,1342.56,1730.18,1702.78,0.0242,0.0630,1.1855,-0.839,2.878,1.063,-0.41,2.26,0.2351,-0.2012,0.3196,-16.647,-76.514,-88.150,-28.57,-21.56,1.0654,0.1509,0.5226,-50.025,-144.900,87.349,-50.18,31.79,-15.39,-1.72,13.66
5314,2150.04,2928.50,3300.00,-0.0022,0.0891,1.2192,1.451,0.740,2.391,-0.39,2.32,0.3188,-0.1223,0.2917,-30.662,-57.475,-71.340,-29.73,-22.02,0.9667,0.0256,0.0522,-78.331,-162.152,109.075,-53.23,30.55,-15.75,-1.96,13.79
5339,782.49,154.73,0.00,0.0303,0.0488,1.1975,-1.144,3.061,-1.120,-0.34,2.30,0.3342,-0.0547,0.3921,27.323,23.380,-13.692,-29.37,-21.07,0.8475,-0.3086,-0.4934,-29.964,-130.961,57.471,-56.46,26.26,-16.06,-2.41,13.65
5353,568.13,91.06,0.00,0.0527,0.0115,1.1812,-0.732,-0.267,0.040,-0.38,2.25,0.3818,-0.0801,0.4656,40.498,42.647,17.286,-28.95,-20.26,0.9247,-0.1678,-0.6379,-19.155,-96.304,20.861,-57.81,22.15,-16.32,-2.92,13.40
5378,2582.78,3300.00,3300.00,0.0066,0.0593,1.2034,0.138,-0.450,3.613,-0.39,2.27,0.4109,-0.3223,0.6326,23.552,49.944,64.950,-27.76,-19.83,0.9608,0.0851,-0.5059,-0.239,1.436,0.662,-57.86,25.11,-16.48,-3.39,13.08
5393,2103.30,2148.43,3042.93,0.0095,0.0603,1.1975,0.016,0.298,0.544,-0.39,2.28,0.3772,-0.4924,0.7219,53.033,72.799,79.362,-26.62,-19.35,0.9144,0.0566,-0.4983,10.372,30.490,24.265,-57.49,28.23,-16.54,-3.81,12.73
5418,838.90,875.97,373.11,0.0139,0.0481,1.1960,0.016,0.878,-0.097,-0.37,2.28,0.3521,-0.7454,0.8977,35.201,70.036,65.789,-24.72,-18.91,0.7784,-0.1534,-0.5269,20.891,121.268,30.326,-54.48,24.89,-16.47,-3.99,12.48
5432,1504.54,2024.32,2025.13,0.0103,0.0471,1.2009,0.016,-2.649,-1.013,-0.41,2.28,0.3518,-0.8474,1.0115,22.727,60.967,40.034,-23.65,-19.00,1.0680,-0.6179,0.3799,61.288,119.696,-17.643,-52.79,24.11,-16.33,-4.03,12.30
5457,1269.23,830.04,648.72,0.0496,0.0671,1.2036,0.550,-3.275,0.987,-0.53,2.31,0.3855,-0.8115,1.1870,34.254,54.402,-10.760,-22.15,-18.47,1.0505,-0.1619,0.3516,35.471,135.955,-58.742,-49.82,24.00,-16.08,-3.86,12.22
5472,765.57,276.41,0.00,0.0239,0.0474,1.1912,0.566,1.397,3.643,-0.53,2.32,0.4143,-0.7512,1.2749,15.277,24.021,-29.203,-21.68,-18.49,0.9951,-0.2659,0.4231,54.417,109.436,-33.872,-48.51,23.66,-15.82,-3.61,12.22
5497,2353.92,3084.84,3300.00,-0.0674,0.0002,1.1953,0.459,1.137,2.544,-0.42,2.28,0.4482,-0.6458,1.2053,-6.784,-41.536,-41.432,-22.62,-18.85,1.0281,0.0736,0.7871,17.944,33.864,-24.742,-47.77,23.73,-15.65,-3.33,12.33
5511,2474.80,2903.52,3300.00,0.0261,0.0454,1.2119,-0.030,-4.237,0.407,-0.50,2.28,0.4033,-0.6228,1.0591,3.521,-65.765,-44.791,-23.48,-19.03,1.0142,-0.1643,0.5588,-11.842,-7.663,-16.345,-48.13,22.76,-15.55,-3.08,12.46
5536,624.54,374.73,0.00,0.0259,0.0540,1.2190,-0.015,0.069,0.483,-0.51,2.28,0.2869,-0.5769,0.7554,-27.563,-92.483,-54.959,-25.59,-20.07,1.1365,0.0995,0.5183,-21.506,-15.770,-13.857,-48.85,21.99,-15.60,-2.91,12.69
5551,900.95,1031.50,648.72,0.0049,0.0398,1.1833,0.047,3.519,-0.173,-0.46,2.28,0.2639,-0.5068,0.5942,-29.456,-79.216,-68.943,-26.59,-20.90,1.0842,0.0259,0.6045,-22.163,-50.197,9.471,-49.81,21.29,-15.72,-2.82,12.90
5576,1842.20,1664.10,1997.73,0.0298,0.0605,1.2009,0.092,-1.000,-0.662,-0.50,2.29,0.2900,-0.2773,0.4946,-21.914,-38.468,-80.363,-27.53,-21.60,1.1281,0.2749,0.3042,-25.735,-159.358,50.159,-54.08,21.08,-15.89,-3.03,12.87
5590,1159.63,697.88,475.46,0.0637,0.0586,1.1941,0.489,-0.359,-4.738,-0.56,2.31,0.3320,-0.1790,0.4900,-35.822,-25.109,-70.653,-27.99,-22.08,1.0569,-0.3065,-0.5679,-21.216,-117.541,33.227,-55.86,17.32,-16.09,-3.35,12.74
5615,1610.92,2133.11,2245.13,0.0422,0.0305,1.1963,-0.900,3.122,5.094,-0.51,2.27,0.3589,-0.0696,0.5181,-22.738,7.593,-27.386,-27.94,-22.35,1.0704,0.3015,0.0714,-15.277,-78.411,2.784,-58.15,18.13,-16.26,-3.80,12.46
5630,2364.40,3180.73,3300.00,-0.0278,0.0056,1.2368,-0.824,0.481,7.659,-0.47,2.22,0.3503,-0.0955,0.5725,7.628,31.212,3.606,-27.55,-21.99,1.1450,0.3556,-0.0464,-21.751,-78.823,49.181,-59.57,19.40,-16.40,-4.33,12.07
5655,704.32,232.89,0.00,-0.0432,0.0620,1.2075,-0.335,2.282,0.804,-0.36,2.22,0.3345,-0.2998,0.6648,14.621,47.120,52.767,-26.35,-21.68,1.0607,-0.0781,-0.1788,3.364,-55.556,85.136,-61.32,15.97,-16.46,-4.95,11.50
5669,640.66,399.71,10.48,0.0085,0.0442,1.1951,0.016,-0.725,-0.143,-0.37,2.22,0.3086,-0.4438,0.7278,18.956,57.303,61.225,-25.40,-21.60,0.9712,-0.0663,0.0525,-74.224,-7.404,58.586,-61.90,13.55,-16.44,-5.57,10.87
5694,2384.54,2628.72,3300.00,0.0100,0.0469,1.1924,0.062,-1.992,1.414,-0.42,2.22,0.2676,-0.5996,0.8547,5.140,58.372,47.331,-23.76,-21.74,0.8668,-0.6605,-0.0052,-90.041,14.215,125.487,-61.37,9.29,-16.31,-6.11,10.20
5709,1740.66,1544.03,1664.91,0.0105,0.0427,1.2048,0.108,1.901,0.040,-0.40,2.22,0.3228,-0.6326,0.9250,0.361,54.128,31.988,-22.83,-21.99,0.9186,-0.0895,-0.5602,105.028,-71.297,104.800,-62.34,7.20,-16.12,-6.67,9.45
5734,1082.27,1335.31,1288.57,-0.0090,0.0422,1.1895,0.230,2.817,0.239,-0.31,2.22,0.3354,-0.5728,1.0359,-13.517,34.570,9.927,-21.85,-22.46,1.0831,0.1624,0.4872,15.852,14.657,55.059,-62.03,7.81,-15.88,-7.18,8.70
5748,1823.66,2357.14,2518.31,0.0391,0.0496,1.1990,-0.442,-2.496,-1.334,-0.38,2.22,0.3459,-0.5081,0.9822,-44.967,9.349,6.156,-21.63,-23.20,0.8561,-0.4089,-0.1744,24.570,24.490,65.304,-61.69,5.75,-15.64,-7.63,8.01
5773,1006.52,587.47,375.53,-0.0020,0.0520,1.2119,0.291,1.244,0.071,-0.34,2.23,0.4216,-0.5020,0.7971,-48.311,-11.277,16.064,-21.95,-24.56,0.8302,-0.0270,-0.0609,13.440,2.413,78.846,-62.10,2.84,-15.44,-8.08,7.37
5788,693.04,312.67,35.46,-0.0691,0.0591,1.1851,-3.266,5.931,-1.151,-0.18,2.20,0.4624,-0.6123,0.8599,-3.608,21.822,22.064,-21.67,-24.83,0.7297,-0.4860,-0.0334,-3.781,-9.129,78.220,-62.12,0.85,-15.25,-8.50,6.75
5813,2461.10,3040.51,3300.00,-0.1375,0.0315,1.2427,3.512,3.656,-0.952,0.04,2.27,0.3914,-0.7651,1.2185,63.002,43.013,27.118,-20.50,-23.44,0.7531,-0.0646,0.0266,5.211,-1.510,30.189,-62.60,-0.40,-15.00,-8.95,6.05
5827,2289.45,2395.82,2758.46,-0.0391,0.0142,1.2878,-6.121,-3.992,-3.975,0.02,2.15,0.4485,-0.8479,1.2710,28.895,-5.017,9.805,-20.49,-23.23,0.6848,-0.3417,-0.1282,20.188,-7.938,37.609,-62.71,-2.31,-14.77,-9.37,5.40
5852,693.04,649.52,427.91,0.0366,0.0964,1.1641,0.199,-4.756,-2.341,-0.14,2.20,0.4419,-0.8174,1.0693,-30.082,-82.040,-35.279,-22.43,-24.25,0.8250,-0.4027,0.0983,2.753,-18.671,10.418,-63.17,-3.72,-14.68,-9.79,4.90
5867,1212.82,1540.00,1508.57,0.0767,0.1511,1.2058,8.047,-6.710,5.750,-0.30,2.42,0.4258,-0.6826,0.8857,-12.005,-84.987,-60.043,-23.62,-24.69,0.8573,-0.6105,-0.1234,9.929,-16.930,-15.383,-63.23,-5.54,-14.67,-10.16,4.51
5891,1436.85,1103.22,1066.96,0.0471,0.0513,1.1355,5.558,1.260,19.491,-0.31,2.56,0.4629,-0.4319,0.6990,5.292,-68.895,-72.699,-25.41,-24.70,0.9521,-0.4458,-0.1046,17.883,7.879,-47.597,-63.06,-7.05,-14.78,-10.50,4.28
5906,888.06,370.70,107.18,0.0796,0.0730,1.3223,-1.953,2.053,13.307,-0.35,2.54,0.5125,-0.3450,0.6787,30.483,-51.277,-65.783,-26.31,-24.31,0.9431,-0.4114,-0.0138,2.585,17.589,-24.177,-62.88,-8.71,-14.95,-10.80,4.15
5931,2159.71,2882.56,3143.66,0.0471,-0.0081,1.2146,-5.022,3.092,4.422,-0.31,2.36,0.4932,-0.3381,0.7805,69.048,-24.178,-45.310,-26.98,-22.61,0.9240,-0.4020,0.1926,-20.346,8.291,-18.788,-62.70,-10.32,-15.15,-11.07,4.08
5946,2575.53,3300.00,3300.00,0.0439,0.0042,1.2605,-0.976,0.756,25.781,-0.33,2.30,0.5042,-0.4189,0.7878,55.933,-36.193,-28.531,-27.55,-21.91,0.9156,-0.4774,-0.0081,-26.056,-1.846,-37.246,-62.72,-12.31,-15.38,-11.32,4.06
5970,576.19,154.73,0.00,-0.0183,-0.0020,1.1841,3.146,-0.603,8.804,-0.32,2.33,0.4719,-0.5305,0.7700,44.987,-37.765,-31.829,-28.45,-21.07,0.9934,-0.4952,-0.0918,-8.865,19.451,-89.658,-62.26,-14.29,-15.66,-11.52,4.14
5985,688.21,635.82,191.79,0.0259,0.0105,1.1567,0.474,1.031,13.201,-0.33,2.30,0.4614,-0.5415,0.7083,46.926,-38.300,-39.661,-28.98,-20.72,1.0671,-0.3369,0.0065,-7.445,35.100,-107.383,-61.96,-15.89,-15.95,-11.69,4.26
6010,2182.27,2230.62,3030.84,0.0400,0.0190,1.1885,-0.869,2.481,5.704,-0.30,2.25,0.4492,-0.4653,0.6399,6.453,-46.376,-68.959,-30.12,-20.87,1.1194,-0.1617,-0.0098,-12.606,8.902,-75.979,-62.14,-17.75,-16.31,-11.86,4.45
6025,1365.93,941.25,904.98,0.0518,0.0444,1.2107,-1.389,2.557,-0.509,-0.30,2.23,0.4521,-0.3679,0.6072,-11.471,-38.620,-73.707,-30.73,-21.24,1.2162,-0.2948,0.1045,-27.628,7.512,-72.071,-62.30,-19.20,-16.68,-12.02,4.65
6049,1462.64,1948.57,1972.75,0.0769,0.0662,1.2183,2.352,0.282,5.827,-0.36,2.30,0.4846,-0.1951,0.5225,-25.670,-26.254,-71.966,-31.57,-21.85,1.2252,0.2693,-0.0104,-30.148,0.551,-27.796,-62.59,-17.70,-17.08,-12.20,4.88
6064,2295.09,3192.01,3300.00,-0.0122,0.0876,1.2200,1.085,-1.366,8.071,-0.36,2.36,0.4890,-0.1165,0.5042,-32.051,-15.094,-63.753,-32.02,-22.13,1.1517,-0.0375,0.1177,-30.117,1.680,1.013,-62.99,-18.13,-17.48,-12.38,5.10
6089,713.19,153.11,0.00,0.0168,-0.0046,1.1509,0.673,1.031,5.674,-0.35,2.32,0.4812,-0.0615,0.5557,-18.570,20.922,-31.050,-31.69,-22.26,1.0831,-0.1178,-0.1418,-36.453,-7.343,-25.506,-63.52,-21.46,-17.84,-12.60,5.24
6103,588.28,257.88,0.00,-0.0132,-0.0137,1.2241,-2.289,1.702,2.391,-0.30,2.23,0.4766,-0.0671,0.6018,-4.555,34.479,-14.241,-31.32,-22.01,1.0969,0.0000,0.1549,-27.247,9.115,-14.208,-63.76,-21.42,-18.14,-12.81,5.33
6128,2473.99,2887.40,3300.00,-0.0913,0.0874,1.2778,3.665,-2.679,-1.944,-0.28,2.35,0.4023,-0.1487,0.6833,-13.990,39.227,16.751,-30.34,-22.16,1.0637,0.0229,0.0599,-23.674,-27.373,8.846,-64.88,-21.15,-18.36,-13.10,5.26
6143,1876.85,1726.96,2020.29,-0.0686,0.0725,1.2607,2.215,-2.420,-1.319,-0.25,2.40,0.3728,-0.2344,0.7002,-26.112,43.028,31.011,-29.66,-22.46,1.0785,0.0303,0.0343,-34.835,-20.579,7.059,-65.63,-20.40,-18.52,-13.41,5.10
6168,992.01,1207.18,1076.63,-0.0249,0.0369,1.2039,0.947,-0.176,-1.990,-0.22,2.41,0.3315,-0.3315,0.7144,-27.593,53.318,37.194,-28.22,-23.18,1.1229,0.0864,-0.2583,-1.674,-28.808,19.044,-66.54,-16.80,-18.56,-13.77,4.79
6182,1718.10,2245.13,2374.87,0.0103,0.0767,1.2029,-0.106,-0.939,0.972,-0.24,2.44,0.3767,-0.4050,0.8027,-16.937,68.372,41.896,-27.13,-23.49,1.0712,0.0549,-0.2240,-5.491,-10.991,24.723,-66.92,-13.22,-18.53,-14.14,4.39
6207,1075.02,657.58,447.25,0.0095,0.0569,1.2063,-1.251,-0.405,-4.540,-0.26,2.41,0.4138,-0.4392,1.0039,-10.799,73.166,33.347,-25.22,-23.76,0.9781,0.0435,-0.1892,18.295,12.749,34.525,-66.85,-9.17,-18.36,-14.47,3.90
6222,683.37,284.47,0.00,0.0122,0.0408,1.2085,-0.778,-0.252,-0.876,-0.27,2.39,0.4377,-0.4084,1.0337,-44.082,41.380,27.728,-24.56,-24.34,0.9694,0.0449,-0.0936,19.578,27.726,43.746,-66.79,-5.62,-18.16,-14.77,3.40
6246,2464.32,3080.81,3300.00,0.0054,0.0420,1.2183,-1.602,-1.122,-4.815,-0.29,2.34,0.4507,-0.3613,0.9861,-53.654,-0.254,34.431,-24.53,-25.56,0.9260,-0.0145,0.0923,15.715,30.566,53.685,-66.40,-5.30,-17.97,-15.02,2.95
6261,2377.29,2500.59,3041.32,-0.0005,0.0535,1.2087,-0.198,-2.160,0.071,-0.32,2.34,0.4285,-0.4277,0.9683,-27.685,4.219,55.179,-24.42,-25.93,0.9552,-0.0557,0.1631,19.669,10.673,61.777,-66.51,-5.29,-17.78,-15.26,2.53
6286,682.56,598.75,350.55,-0.1130,-0.0171,1.2581,0.260,6.634,1.185,-0.05,2.29,0.4839,-0.5850,0.9629,10.804,16.296,65.331,-24.00,-25.77,0.8218,-0.2305,-0.0620,21.593,-4.503,60.998,-66.77,-6.76,-17.60,-15.52,2.08
6301,1098.39,1350.62,1285.35,-0.1816,-0.0222,1.2295,-0.198,-0.649,-5.456,0.11,2.22,0.4973,-0.6543,1.0330,29.827,11.425,50.018,-23.80,-25.47,0.7631,-0.3942,-0.0854,25.807,-3.129,37.960,-66.72,-8.30,-17.42,-15.77,1.66
6325,1581.10,1305.49,1336.92,-0.0303,0.1003,1.3650,-3.251,-8.496,-15.151,-0.07,2.18,0.5676,-0.7258,1.0613,28.743,-10.193,37.774,-24.05,-24.95,0.8505,-0.3988,0.0537,31.990,5.131,2.494,-66.56,-9.00,-17.27,-15.98,1.29
6340,975.90,530.26,285.27,0.0889,0.0425,1.2910,-6.854,-11.809,-9.517,-0.32,2.07,0.5730,-0.7180,1.0576,29.857,-20.788,21.866,-24.35,-24.71,0.8843,-0.4282,0.1483,25.944,-11.907,-1.689,-66.65,-9.87,-17.12,-16.16,0.97
6365,2021.90,2628.72,2839.85,0.0864,-0.0088,1.1387,-1.541,0.679,2.452,-0.38,1.99,0.5642,-0.6182,1.0125,24.010,-55.430,-7.630,-25.72,-24.26,0.8201,-0.3981,-0.0260,11.578,-20.091,-19.506,-67.09,-11.26,-17.08,-16.35,0.73
6379,2576.34,3280.66,3300.00,0.1189,0.0388,1.1980,-3.724,0.649,13.811,-0.48,1.93,0.5767,-0.5737,0.9370,20.621,-64.956,-18.821,-26.69,-24.11,0.8325,-0.3723,-0.0431,1.425,-13.892,-24.941,-67.26,-12.95,-17.10,-16.54,0.56
6404,581.03,174.87,0.00,0.1030,0.0481,1.1841,-1.495,-2.313,4.651,-0.62,1.90,0.5813,-0.4873,0.7883,33.292,-74.376,-32.348,-28.60,-23.45,0.8750,-0.5409,0.1360,-17.231,1.085,-34.819,-67.04,-14.63,-17.25,-16.69,0.56
6419,686.59,612.45,275.60,0.0813,-0.0217,1.1528,-2.961,4.130,9.262,-0.63,1.80,0.5657,-0.4756,0.7002,37.460,-78.758,-29.615,-29.83,-23.13,1.0295,-0.6337,0.1040,-34.163,-15.724,-60.391,-67.09,-16.44,-17.47,-16.83,0.64
6444,2263.66,2332.97,3171.87,0.0100,0.0249,1.1975,1.802,2.618,9.704,-0.57,1.83,0.5420,-0.4905,0.6106,48.834,-56.132,-34.195,-31.30,-22.25,1.0420,-0.4802,-0.1455,-38.209,-7.587,-87.109,-67.21,-19.18,-17.78,-16.98,0.80
6458,1446.52,1075.02,1099.19,-0.0188,0.0217,1.1531,1.069,-0.435,6.086,-0.54,1.83,0.5156,-0.5027,0.6145,43.338,-39.720,-38.104,-31.91,-21.97,0.9622,-0.2687,-0.3662,-34.804,1.253,-100.605,-67.15,-22.17,-18.12,-17.11,1.01
6483,1374.80,1792.23,1759.19,0.1001,0.0540,1.1733,-0.411,3.656,-1.838,-0.54,1.84,0.5024,-0.4272,0.6072,8.392,-35.765,-60.608,-32.82,-22.03,0.9899,0.0317,-0.1470,-23.384,54.764,-78.391,-66.10,-18.94,-18.49,-17.16,1.33
6498,2204.03,2957.51,3300.00,0.1040,0.0400,1.1958,2.886,2.160,4.315,-0.60,1.88,0.5249,-0.3655,0.5522,-4.616,-33.552,-75.630,-33.41,-22.32,1.2781,0.0322,0.1912,-28.468,54.398,-73.994,-65.63,-18.77,-18.88,-17.17,1.71
6523,795.38,296.56,0.00,-0.0042,0.1001,1.1851,6.871,1.733,10.483,-0.54,2.11,0.4780,-0.2087,0.5239,-23.105,-7.491,-86.150,-33.73,-22.87,1.3413,-0.0361,0.0842,-11.338,43.222,-37.567,-64.99,-19.14,-19.26,-17.13,2.13
6537,621.32,313.48,0.00,0.0806,-0.0430,1.2524,-1.495,-1.015,11.567,-0.62,2.00,0.4995,-0.0889,0.5828,-11.013,12.677,-78.577,-33.68,-22.74,1.2128,-0.0424,0.2112,-17.751,36.780,-28.345,-64.76,-19.24,-19.61,-17.08,2.53
6562,2508.64,2901.10,3300.00,-0.0767,0.0745,1.1189,-4.656,2.771,-2.036,-0.46,1.93,0.4990,0.0349,0.7268,-14.112,24.189,-39.493,-33.11,-22.58,1.2010,0.1239,0.2832,-21.109,-1.816,-9.521,-65.02,-18.89,-19.91,-17.06,2.84
6577,1998.53,1893.77,2498.17,-0.0330,0.0356,1.3716,2.184,0.023,-9.166,-0.42,1.95,0.4978,0.0139,0.7363,-16.311,10.860,-6.394,-32.97,-22.34,1.2462,0.1901,0.0714,-25.079,-15.068,1.716,-65.55,-17.49,-20.17,-17.09,3.09
6601,916.26,1046.01,813.11,-0.0212,0.0461,1.1697,-5.908,-4.603,-6.128,-0.51,1.81,0.3853,-0.1460,0.5737,-34.601,-0.834,41.331,-32.99,-23.02,1.1141,0.1643,0.1348,-14.300,-29.755,27.838,-66.55,-16.47,-20.42,-17.17,3.25
6616,1560.15,1981.61,2146.01,-0.0618,0.0627,1.2969,3.054,-5.473,-5.013,-0.52,1.88,0.2917,-0.2214,0.5266,-33.288,16.937,51.545,-32.63,-23.49,1.0494,0.2328,0.1577,-5.583,-44.961,36.617,-67.36,-15.10,-20.62,-17.30,3.32
6641,1178.97,802.64,568.94,-0.0747,-0.0322,1.2688,-2.350,0.069,-7.303,-0.44,1.75,0.2158,-0.3257,0.6255,-11.105,69.822,48.217,-30.62,-23.84,1.0302,0.3268,0.1285,-13.460,-64.320,76.510,-69.00,-13.76,-20.67,-17.55,3.12
6656,759.12,348.13,0.00,-0.1155,0.0435,1.1182,-1.465,-2.634,-22.219,-0.35,1.74,0.2878,-0.3762,0.8101,4.712,98.647,44.293,-28.95,-23.80,0.9222,0.0765,-0.0028,-10.071,-73.648,93.853,-70.39,-11.79,-20.61,-17.88,2.73
6680,2386.15,3025.20,3300.00,0.0483,0.0652,1.1033,-4.320,-0.954,-29.853,-0.42,1.67,0.4150,-0.5049,1.2676,35.674,105.502,42.812,-26.14,-22.89,0.8701,0.1249,-0.3461,-11.399,-51.739,75.166,-71.58,-8.62,-20.35,-18.27,2.08
6695,2424.03,2664.18,3300.00,0.0388,0.0510,1.1121,4.703,3.824,-25.548,-0.39,1.76,0.4714,-0.6743,1.6169,66.804,87.593,30.125,-24.66,-21.92,0.9353,-0.1414,0.1910,5.074,-41.144,77.151,-72.25,-9.11,-20.01,-18.68,1.33
6720,656.78,481.90,204.69,-0.0413,0.1179,1.1519,0.459,6.710,-9.700,-0.18,1.85,0.7996,-0.7388,1.7295,21.613,-27.628,-12.317,-25.31,-21.42,0.8086,-0.0732,-0.0714,-33.415,-86.549,83.151,-74.58,-12.43,-19.75,-19.24,0.52
6735,946.89,1122.56,1008.94,0.0276,0.0862,1.0601,17.756,-0.588,-16.433,-0.22,2.16,0.7742,-0.5874,1.5642,-31.624,-115.552,-43.890,-26.96,-21.86,0.9121,-0.2980,-0.3608,-15.552,-78.671,74.449,-75.48,-15.21,-19.63,-19.82,-0.19
6759,1792.23,1599.63,1685.05,-0.0605,0.0630,1.0879,-8.961,2.389,0.391,-0.09,1.96,0.5903,-0.3135,0.9612,-76.173,-209.201,-30.150,-32.12,-23.63,1.0173,-0.2382,-0.5488,30.463,-15.770,34.464,-75.54,-17.30,-19.88,-20.37,-0.49
6774,1122.56,744.62,550.40,-0.1104,0.1064,1.2173,1.085,-5.641,-11.059,-0.07,2.04,0.5601,-0.2117,0.4814,-32.082,-194.040,-23.188,-35.20,-24.10,0.8826,-0.2697,-0.1356,38.692,2.688,33.380,-75.41,-18.73,-20.33,-20.87,-0.55
6799,1792.23,2242.71,2396.63,0.0037,0.0579,1.3423,3.756,-3.718,-23.105,-0.16,2.14,0.5151,-0.2124,0.1506,26.010,-105.292,0.873,-38.32,-24.08,0.6244,-0.3171,-0.0892,21.883,-12.457,6.388,-75.45,-19.94,-20.96,-21.34,-0.38
6813,2442.56,3017.95,3300.00,0.0295,0.0906,1.2578,-0.366,4.756,-17.746,-0.11,2.17,0.5679,-0.2600,0.1343,61.949,-39.369,8.415,-39.37,-23.96,0.7031,-0.4291,-0.0548,7.730,-9.159,-1.002,-75.24,-21.37,-21.62,-21.76,-0.14
6838,656.78,276.41,0.00,0.0791,0.0813,1.2444,-2.289,0.221,-5.517,-0.18,2.15,0.6343,-0.3035,0.5569,104.361,43.196,6.263,-38.43,-21.52,0.8606,-0.4023,-0.2169,-11.216,-18.442,-19.979,-75.43,-23.59,-22.17,-22.17,0.01
6853,637.44,485.93,189.38,0.0994,0.0857,1.1875,-1.541,3.443,7.292,-0.22,2.17,0.7219,-0.3403,0.7893,90.178,39.120,7.041,-37.90,-20.25,0.9062,-0.3492,-0.2289,-15.613,-6.594,-22.467,-75.32,-25.80,-22.64,-22.53,0.11
6878,2373.26,2563.44,3300.00,0.0369,0.1189,1.1851,2.840,8.008,4.483,-0.06,2.31,0.7715,-0.4500,0.9792,63.827,-4.300,11.225,-37.96,-18.78,0.8724,-0.3574,-0.1569,-19.460,1.421,-29.261,-75.10,-28.04,-23.09,-22.86,0.23
6893,1739.85,1521.47,1647.99,-0.0295,0.0107,1.1497,2.505,-4.038,6.651,-0.08,2.31,0.7625,-0.5017,0.9224,34.453,-40.056,1.591,-38.50,-18.48,0.8684,-0.3586,-0.1963,-22.911,0.795,-38.437,-74.88,-30.18,-23.55,-23.15,0.39
6918,991.21,1193.48,992.01,0.0325,-0.0242,1.2349,-2.579,-4.756,4.132,-0.23,2.18,0.5896,-0.4385,0.6328,-43.593,-88.834,-22.043,-40.66,-19.88,0.9727,-0.4689,-0.1829,-28.987,10.077,-62.406,-74.39,-32.52,-24.11,-23.38,0.73
6932,1767.25,2337.80,2453.85,0.0000,0.0349,1.1870,-0.091,0.191,-2.662,-0.22,2.17,0.5100,-0.3425,0.4124,-57.471,-83.704,-41.829,-41.91,-21.09,1.1404,-0.4591,-0.2621,-30.697,14.551,-91.597,-73.99,-34.70,-24.73,-23.57,1.16
6957,1018.61,479.49,186.96,0.0374,0.0610,1.2019,0.352,-0.573,-5.639,-0.27,2.19,0.4866,-0.1716,0.1448,-69.074,-31.536,-58.058,-43.15,-23.35,1.1268,-0.1130,-0.4435,-20.331,52.948,-96.773,-72.58,-37.81,-25.38,-23.64,1.74
6972,631.79,124.10,0.00,0.0623,0.0811,1.1770,0.230,-0.939,-2.861,-0.34,2.23,0.5596,-0.0417,0.1675,-51.379,25.288,-58.043,-43.38,-23.89,1.1526,-0.0170,-0.2078,-19.476,64.154,-71.048,-71.81,-40.84,-26.00,-23.64,2.36
6997,2553.77,3300.00,3300.00,0.0757,0.0710,1.1216,2.077,2.252,1.933,-0.35,2.31,0.6433,0.1057,0.4543,-4.509,94.601,-19.646,-41.29,-23.26,1.2799,-0.2867,0.0048,-18.773,51.696,-50.620,-70.67,-42.26,-26.43,-23.57,2.86
7011,2345.86,2509.45,3300.00,0.0125,0.0327,1.2483,-0.518,3.992,3.674,-0.30,2.28,0.6538,0.0769,0.5938,20.911,95.838,14.705,-40.04,-22.35,1.3005,-0.1595,-0.0457,-13.552,39.390,-60.315,-70.34,-43.73,-26.75,-23.48,3.27
7036,668.06,556.04,0.00,-0.0610,-0.0066,1.1885,-3.282,-4.145,7.353,-0.33,2.15,0.5916,-0.1851,0.7917,24.498,98.173,65.484,-37.57,-21.57,1.2030,0.1808,-0.1296,-11.903,21.512,-19.887,-70.00,-40.63,-26.86,-23.37,3.49
7051,1083.08,1395.75,1237.00,0.0857,0.0173,1.1079,4.260,-3.809,10.758,-0.47,2.19,0.5615,-0.3889,0.9299,27.872,94.128,69.713,-36.03,-21.19,1.0502,0.1998,0.0790,-11.445,26.810,1.914,-69.78,-38.62,-26.86,-23.24,3.61
7076,1560.15,1265.20,1373.19,-0.0125,-0.0146,1.0725,-5.541,8.206,5.475,-0.25,1.99,0.4614,-0.5847,1.0500,-32.509,50.265,41.973,-34.51,-22.14,1.0392,0.1530,0.0372,-7.399,-5.816,12.586,-70.15,-36.50,-26.76,-23.17,3.59
7090,972.67,532.67,166.01,-0.0581,0.0320,1.1279,2.321,2.557,6.056,-0.15,2.02,0.4277,-0.5720,1.0164,-56.830,23.960,8.721,-33.88,-23.09,1.1466,0.0741,0.0137,-6.193,-12.518,27.365,-70.65,-34.27,-26.63,-23.14,3.49
7115,2036.41,2616.63,3009.89,-0.0374,0.0903,1.1758,-1.663,-4.481,-3.486,-0.22,2.03,0.3997,-0.3279,0.8726,-78.921,7.715,-21.859,-33.48,-24.96,1.0839,0.1147,-0.0087,-1.735,-19.266,30.372,-71.39,-31.74,-26.48,-23.16,3.32
7130,2500.59,3092.09,3300.00,0.0195,0.0930,1.1643,0.367,-5.565,-8.555,-0.31,2.08,0.4224,-0.1592,0.7866,-71.517,5.059,-17.432,-33.29,-25.71,1.0233,0.0831,-0.0227,0.417,-26.182,34.739,-72.04,-28.99,-26.32,-23.22,3.10
7154,634.21,311.06,0.00,0.0022,0.0691,1.1978,-0.030,-1.000,-2.464,-0.33,2.11,0.4504,-0.0798,0.7566,-10.891,30.387,27.530,-32.50,-25.58,1.0315,0.1863,-0.2375,10.127,-25.816,38.510,-72.70,-25.33,-26.11,-23.31,2.80
7169,774.43,793.77,542.34,0.0149,0.0315,1.1941,0.016,0.573,-1.471,-0.33,2.09,0.4971,-0.2034,0.8621,21.903,51.059,52.705,-31.71,-25.02,0.9683,0.2671,-0.1740,7.456,-16.091,80.113,-72.91,-22.25,-25.86,-23.42,2.44
7194,2050.11,1976.78,2273.33,-0.0552,0.0332,1.2065,-0.305,5.168,-4.280,-0.15,2.08,0.4912,-0.4983,1.1387,52.101,46.601,72.400,-30.38,-23.73,0.8981,0.1460,-0.2081,17.333,-9.495,100.952,-73.17,-18.49,-25.55,-23.55,2.00
7208,1312.75,971.06,874.36,0.0039,-0.0144,1.1982,0.474,4.328,-9.151,-0.09,2.03,0.5310,-0.6768,1.1819,32.071,14.769,55.362,-29.98,-23.39,0.9027,-0.0580,-0.1860,20.219,5.497,110.586,-73.18,-21.08,-25.24,-23.67,1.56
7233,1540.00,1963.88,2062.20,0.0251,0.0876,1.2170,-2.106,-1.687,-0.021,-0.15,2.02,0.5049,-0.7329,1.1824,-11.517,-35.246,-0.012,-30.64,-23.84,0.8159,-0.2947,-0.0691,29.501,7.421,86.220,-72.93,-22.01,-24.99,-23.77,1.22
7248,2299.12,2956.70,3300.00,-0.1260,0.0754,1.1960,-1.160,-0.924,-0.509,-0.04,2.03,0.3801,-0.5708,1.1770,-24.265,-57.979,-30.470,-31.18,-24.23,0.7616,-0.4091,0.0619,33.288,2.764,74.281,-72.66,-22.72,-24.80,-23.85,0.96
7273,735.75,303.81,0.00,-0.1567,0.0674,1.2192,0.947,5.000,-11.578,0.23,2.08,0.7778,-0.1609,0.8237,-28.845,-79.995,-43.508,-33.36,-24.67,0.8278,-0.3439,0.0035,40.188,-34.442,37.762,-73.39,-23.08,-24.80,-23.99,0.81
7287,611.65,352.97,38.68,-0.1047,-0.0327,1.4690,-8.305,6.954,-19.792,0.41,1.89,0.7578,0.0430,0.8423,17.384,-64.880,-8.806,-34.46,-23.87,0.8604,-0.4314,-0.1138,32.524,-30.503,22.525,-73.62,-24.24,-24.89,-24.15,0.74
7312,2513.48,2864.84,3300.00,0.1389,0.2542,1.2944,10.367,-5.137,-20.937,0.15,2.33,0.6877,-0.0439,0.7717,77.964,-61.628,98.324,-36.11,-21.55,0.8130,-0.5167,-0.0784,39.120,-31.373,2.021,-74.05,-24.78,-25.07,-24.31,0.76
7327,1921.17,1761.61,1986.45,0.2642,0.1519,1.1479,11.512,-2.328,-2.815,-0.14,2.60,0.5815,-0.3506,0.6685,79.369,-76.178,137.163,-37.23,-20.54,0.8730,-0.6245,0.0405,28.036,-48.167,-10.208,-74.35,-25.60,-25.29,-24.46,0.83
7351,913.04,1083.08,916.26,0.1765,0.0786,1.3589,4.047,3.840,11.659,-0.19,2.71,0.4841,-0.9197,0.5325,80.040,-51.201,98.217,-38.22,-19.38,0.8276,-0.4244,-0.3757,2.753,-28.365,-28.910,-74.67,-27.66,-25.57,-24.62,0.95
7366,1680.22,2209.67,2292.67,0.1467,0.2319,1.1169,-0.213,0.420,27.704,-0.33,2.89,0.5439,-1.0308,0.5464,71.308,-26.361,25.591,-38.34,-19.21,0.8334,-0.2885,-0.2734,-12.773,-10.182,-26.193,-74.61,-29.96,-25.82,-24.75,1.07
7391,1070.18,556.04,388.42,0.0371,0.0098,1.2622,0.917,10.496,46.086,-0.10,2.86,0.7175,-0.7817,0.8545,9.231,-14.407,-68.287,-38.55,-19.45,0.9081,-0.4626,-0.3687,-11.842,2.093,-41.048,-74.20,-32.22,-26.09,-24.87,1.23
7405,631.79,125.71,0.00,-0.0833,0.0591,1.1831,3.024,2.466,31.201,0.02,2.91,0.8135,-0.4656,0.9509,2.682,-34.269,-92.852,-39.02,-19.55,0.9064,-0.5050,-0.2605,-16.132,36.398,-57.032,-73.36,-34.15,-26.38,-24.92,1.46
7430,2544.10,3300.00,3300.00,0.0027,0.0510,1.2388,4.276,-7.626,26.605,-0.17,3.00,0.7769,-0.1492,0.7285,-36.326,-96.666,-60.837,-41.52,-20.27,1.0110,-0.4696,-0.1270,-31.995,20.566,-97.582,-72.68,-36.35,-26.81,-24.91,1.90
7445,2450.62,2785.05,3300.00,0.0242,0.0591,1.1309,3.634,-4.557,22.910,-0.26,3.05,0.6992,-0.0979,0.4709,-25.318,-112.101,-35.401,-43.40,-20.46,0.9994,-0.3330,-0.1558,-25.980,27.146,-116.880,-72.23,-38.29,-27.34,-24.86,2.48
7470,606.01,402.93,0.00,0.0144,-0.0190,1.2224,-2.457,4.405,23.246,-0.16,2.91,0.5510,-0.2214,0.1448,-7.318,-53.338,1.179,-45.12,-21.37,1.1771,-0.0699,-0.1484,-36.697,27.360,-115.154,-71.76,-41.51,-27.96,-24.79,3.17
7484,1059.71,1338.53,1118.53,0.0195,-0.0122,1.2231,-0.992,6.298,17.231,-0.08,2.83,0.4863,-0.3325,0.0591,-8.692,-11.903,-0.470,-45.49,-22.66,1.2233,-0.0564,-0.1436,-27.613,30.398,-92.040,-71.55,-44.25,-28.56,-24.71,3.85
7509,1571.43,1251.50,1401.39,0.0205,-0.1462,1.3010,-0.473,-3.626,-1.670,-0.19,2.63,0.5276,-0.3914,0.2590,-13.792,73.395,-41.127,-43.77,-23.67,1.1714,-0.0762,-0.2498,-36.682,31.390,-54.544,-70.90,-47.52,-29.00,-24.59,4.40
7524,936.41,425.49,124.91,0.0686,-0.0103,1.2529,-2.366,2.603,6.498,-0.21,2.54,0.5930,-0.2664,0.5061,10.651,100.738,-59.676,-42.37,-23.60,1.1665,0.0869,-0.0027,-40.331,43.390,-35.063,-70.58,-45.31,-29.30,-24.45,4.85
7549,2062.20,2711.72,3056.63,0.0291,0.0195,1.1479,6.398,5.580,-0.967,-0.10,2.66,0.7236,-0.1709,0.8867,-24.555,86.555,-39.646,-40.20,-23.95,1.1404,0.2666,-0.1045,-25.323,7.604,-4.819,-70.50,-42.79,-29.44,-24.33,5.11
7563,2566.67,3237.95,3300.00,-0.0283,0.0198,1.2676,16.062,-4.115,11.475,-0.13,2.85,0.6750,-0.1711,1.0037,-32.860,64.464,-17.463,-39.14,-24.13,1.1581,0.1094,-0.1075,-19.170,17.421,-7.139,-70.49,-39.52,-29.49,-24.21,5.29
7588,596.34,242.56,0.00,-0.0107,-0.0540,1.2268,-30.305,0.420,1.048,-0.11,2.01,0.5608,-0.2539,0.8721,-60.723,11.441,11.469,-38.71,-25.45,1.1819,0.2733,-0.0964,-2.010,7.772,18.754,-70.41,-36.59,-29.51,-24.09,5.42
7603,701.10,703.52,327.99,-0.0027,0.0056,1.0735,15.726,-11.092,-4.112,-0.26,2.20,0.4485,-0.2881,0.7336,-72.509,2.937,14.324,-38.49,-26.41,1.1118,0.1862,-0.0721,-7.415,-0.778,37.365,-70.61,-33.74,-29.51,-23.99,5.52
7627,2121.83,2105.71,2631.14,-0.0989,0.0376,1.0984,-4.228,1.947,-16.097,-0.11,2.09,0.3347,-0.2380,0.5859,-67.379,33.502,9.377,-37.46,-27.96,1.0259,0.1748,-0.1083,8.005,11.054,46.739,-70.51,-30.43,-29.44,-23.89,5.55
7642,1371.58,1017.00,963.81,0.0076,0.1201,1.1323,-1.358,0.038,-18.693,-0.11,2.15,0.3594,-0.1648,0.6501,-25.761,65.349,5.240,-36.34,-28.06,1.0110,0.1395,-0.0721,8.020,11.268,53.609,-70.56,-27.36,-29.30,-23.81,5.49
7667,1440.88,1845.42,1902.64,0.0083,0.1023,1.2546,-0.335,-0.252,-14.341,-0.12,2.19,0.4683,-0.1582,1.0127,27.414,100.204,25.820,-33.67,-27.01,0.9767,0.0852,-0.0950,22.692,13.894,66.968,-70.46,-23.50,-28.98,-23.72,5.26
7681,2236.26,2884.18,3258.10,-0.0408,0.0417,1.1936,3.008,1.443,-8.861,-0.06,2.23,0.5366,-0.2888,1.2378,42.392,85.685,51.652,-32.23,-26.12,0.9702,-0.0941,-0.0421,23.120,19.222,73.120,-70.45,-24.98,-28.59,-23.65,4.94
7706,762.34,336.85,12.09,-0.0110,0.0186,1.2244,-2.198,4.527,-15.944,0.06,2.15,0.5815,-0.5969,1.4067,35.124,4.448,61.408,-31.89,-25.21,0.9557,-0.2693,0.1536,19.914,-4.060,71.029,-70.58,-25.21,-28.21,-23.60,4.61
7721,607.62,321.54,0.00,0.0520,0.1360,1.1499,-1.541,2.130,-13.624,0.04,2.22,0.5693,-0.7205,1.2856,-4.509,-50.407,37.270,-32.41,-25.35,0.8337,-0.2722,0.1444,8.051,-18.304,65.731,-70.83,-25.83,-27.89,-23.56,4.32
7746,2514.29,2880.15,3300.00,0.0657,0.1526,1.2144,4.627,-1.763,-5.028,-0.07,2.43,0.5737,-0.5854,0.9658,-50.616,-102.056,-21.630,-34.79,-26.70,0.6951,-0.2296,0.0415,-8.422,-44.167,54.494,-71.92,-27.11,-27.75,-23.60,4.15
7761,2047.69,1959.05,2179.05,0.0137,0.0684,1.2014,0.703,2.664,0.926,-0.04,2.46,0.5979,-0.3877,0.7319,-59.395,-111.659,-38.470,-36.40,-27.58,0.9071,-0.2013,-0.2379,0.127,-61.220,40.097,-72.78,-29.36,-27.74,-23.70,4.04
7785,853.41,975.90,808.28,-0.1008,-0.0164,1.2124,-3.312,2.115,7.689,0.11,2.31,0.6021,-0.1682,0.4456,-26.967,-89.017,-10.241,-38.87,-28.09,0.9796,-0.2803,-0.5461,19.135,9.909,18.357,-72.24,-31.36,-27.91,-23.76,4.14
7800,1564.98,1984.84,2091.21,-0.2007,0.0579,1.2046,-1.679,-7.916,-7.960,0.18,2.30,0.6821,-0.2214,0.3479,16.941,-46.254,21.957,-39.93,-27.94,0.8350,-0.4062,-0.1401,23.990,32.520,17.395,-71.59,-32.57,-28.14,-23.78,4.36
7825,1207.18,811.50,683.37,-0.1165,0.2278,1.0312,10.810,-5.427,-19.868,0.17,2.77,0.6880,-0.5012,0.5571,79.750,24.418,52.003,-39.39,-26.27,0.7858,-0.3442,-0.1204,18.631,-1.022,-5.948,-71.48,-33.65,-28.33,-23.79,4.54
7840,727.69,304.62,11.28,0.0933,0.2271,1.1685,12.260,0.145,-16.280,0.08,3.11,0.7292,-0.6914,0.7637,72.224,29.807,45.881,-38.88,-25.55,0.7795,-0.2776,-0.1069,9.165,9.803,-9.490,-71.29,-35.07,-28.45,-23.78,4.68
7864,2385.35,3001.83,3300.00,-0.0100,0.0942,1.1042,4.642,1.489,10.254,0.13,3.26,0.8103,-0.8723,1.0178,44.117,6.036,-10.623,-38.58,-24.78,0.7545,-0.2256,-0.1970,2.753,10.535,-19.506,-70.98,-36.92,-28.55,-23.75,4.81
7879,2511.87,2776.19,3300.00,0.0469,0.0637,1.1777,-7.740,2.710,13.918,0.12,3.14,0.8274,-0.8042,1.0884,8.392,-28.712,-47.310,-38.84,-24.89,0.8007,-0.2329,-0.2407,-1.980,28.596,-20.193,-70.49,-38.93,-28.67,-23.69,4.98
7904,597.14,411.79,6.45,0.0471,0.0725,1.0779,-1.266,5.473,8.208,0.20,3.12,0.7498,-0.4473,0.8237,-65.105,-117.124,-88.714,-41.69,-26.54,0.9786,-0.3447,-0.2577,-2.361,75.375,-34.559,-68.58,-40.75,-28.98,-23.50,5.48
7918,933.99,1122.56,938.83,0.0459,-0.0168,1.3005,1.268,-0.176,9.872,0.15,3.07,0.6553,-0.2393,0.5291,-80.234,-136.391,-86.592,-43.77,-27.65,1.0183,-0.2811,0.0187,-3.995,83.161,-25.933,-67.51,-41.71,-29.40,-23.25,6.16
7943,1745.49,1531.14,1714.07,-0.0212,0.0044,1.1689,-6.534,-2.191,19.109,0.11,2.85,0.5354,-0.0732,0.0781,-32.372,-85.078,-48.898,-46.54,-28.74,1.0745,-0.9734,-0.0970,3.486,-0.121,-184.620,-67.11,-42.71,-30.00,-22.98,7.01
7958,1061.32,637.44,346.52,-0.0457,-0.0554,1.1917,1.619,0.710,8.590,0.17,2.76,0.4712,-0.1133,0.0417,-13.883,-24.147,-26.501,-47.46,-29.76,1.1340,0.4399,-0.3405,15.501,65.467,-182.147,-66.12,-39.08,-30.61,-22.67,7.94
7983,1869.60,2320.07,2664.18,0.0247,0.0039,1.1946,0.276,5.565,2.529,0.27,2.72,0.5459,-0.2695,0.2148,37.201,72.677,-13.447,-45.90,-29.29,1.2307,0.1152,0.0112,2.616,13.360,-95.521,-66.16,-36.54,-31.09,-22.39,8.69
7997,2490.11,3028.43,3300.00,0.0078,0.0681,1.1929,3.237,-1.260,-0.448,0.24,2.78,0.6174,-0.3594,0.4924,36.575,105.822,-17.111,-44.38,-28.91,1.2678,-0.0087,-0.0856,-19.522,56.215,-72.177,-65.76,-39.58,-31.42,-22.10,9.31
8022,631.79,345.71,0.00,0.0232,0.0435,1.2092,-0.076,1.885,-1.685,0.26,2.76,0.7026,-0.3809,0.8687,19.888,94.677,-30.073,-41.92,-28.32,1.0812,0.1707,0.1797,-12.178,65.848,-31.979,-64.38,-38.21,-31.55,-21.74,9.82
8037,657.58,609.23,161.98,0.1548,0.0474,1.1899,4.795,-1.321,6.086,0.09,2.82,0.7188,-0.3760,0.9546,-33.196,53.257,-34.791,-41.02,-28.65,1.0826,0.1716,0.3010,-23.186,41.253,-18.483,-63.95,-37.18,-31.61,-21.36,10.25
8061,2297.51,2307.99,3246.81,-0.0037,0.0410,1.2056,-0.427,2.328,23.445,0.15,2.79,0.6047,-0.2896,0.8706,-56.570,3.563,-30.882,-40.78,-29.83,1.2841,0.2274,0.6266,-13.201,-20.106,6.586,-64.41,-36.36,-31.64,-21.04,10.60
8076,1544.84,1290.18,1326.45,-0.0957,-0.0046,1.2263,-6.167,-0.985,19.292,0.22,2.64,0.5212,-0.2507,0.6924,-79.135,-19.888,-29.722,-40.96,-30.76,1.3042,0.1238,0.1021,-20.361,-74.610,52.739,-65.85,-34.92,-31.69,-20.85,10.84
8101,1276.48,1610.92,1659.27,-0.0466,-0.1023,1.2168,0.688,-2.893,4.865,0.19,2.51,0.4436,-0.1672,0.3733,-87.807,-4.315,-25.127,-41.19,-32.76,1.0497,0.0188,0.0247,-20.651,-10.457,-15.521,-66.56,-33.97,-31.76,-20.72,11.03
8115,2058.97,2514.29,2967.99,-0.0847,-0.0637,1.3503,-25.862,4.740,1.430,0.33,2.04,0.4106,-0.1108,0.3396,-60.555,41.349,-15.890,-40.75,-33.34,1.1042,0.3579,0.0703,-9.460,-38.274,13.120,-67.21,-31.85,-31.79,-20.65,11.14
8140,866.30,492.38,124.10,-0.0276,-0.0164,1.1995,-5.465,2.603,-8.189,0.41,1.85,0.4482,-0.0996,0.5430,-26.082,97.761,9.026,-38.35,-33.51,1.0040,-0.0671,-0.0045,-29.018,-14.656,72.388,-67.94,-33.80,-31.66,-20.65,11.01
8155,627.77,374.73,0.00,-0.0168,-0.0149,1.1448,25.421,-12.954,-9.883,0.23,2.16,0.4868,-0.1494,0.7437,-15.303,114.799,34.889,-36.56,-33.29,0.9926,-0.0417,0.0692,-26.468,-21.526,50.464,-68.60,-34.13,-31.40,-20.68,10.72
8180,2532.01,2823.74,3300.00,-0.0637,0.0193,0.9756,19.482,-8.618,-11.670,0.09,2.62,0.5222,-0.3372,1.0859,12.040,111.486,66.843,-33.62,-32.68,1.0613,0.0632,-0.0154,-18.270,-15.205,55.426,-69.33,-31.81,-30.95,-20.75,10.20
8194,2150.04,2059.78,2349.08,-0.0715,-0.0132,1.1838,5.237,2.405,-20.479,0.19,2.63,0.5459,-0.4587,1.1484,0.544,74.128,78.583,-32.37,-32.45,1.0609,0.1326,0.0049,-9.064,-24.747,71.456,-69.95,-29.55,-30.45,-20.87,9.58
8219,786.52,902.56,701.90,-0.1528,0.0930,1.2427,2.199,-4.008,-16.326,0.23,2.71,0.4827,-0.6816,1.0608,-47.654,15.456,60.934,-31.76,-33.61,0.9506,0.0005,-0.0754,-3.201,-34.411,87.349,-71.10,-25.44,-29.94,-21.06,8.88
8234,1436.85,1805.13,1878.46,-0.2041,0.2068,1.4133,10.825,-8.176,-22.967,0.27,2.98,0.4448,-0.6697,0.9697,-37.395,7.441,43.560,-31.43,-34.17,0.8955,-0.0936,-0.0851,-2.239,-20.549,76.281,-71.61,-27.61,-29.44,-21.27,8.17
8259,1278.90,917.88,821.17,0.0752,-0.0256,1.2708,2.306,1.092,-34.341,0.22,2.95,0.5149,-0.5496,0.8662,-31.776,8.815,15.270,-31.12,-34.91,0.8514,-0.0673,0.0276,3.120,-23.999,63.059,-72.46,-28.34,-28.96,-21.53,7.43
8273,710.77,382.78,99.93,0.1648,-0.1299,1.1980,14.596,-3.473,-38.784,0.01,2.98,0.5481,-0.4429,0.8242,-31.181,6.357,10.675,-31.02,-35.22,0.9113,0.0430,-0.0135,16.509,-36.778,68.769,-73.29,-25.38,-28.49,-21.81,6.68
8298,2405.49,2991.36,3300.00,-0.0725,0.2825,0.8411,11.344,-15.672,-29.074,-0.27,3.57,0.5796,-0.2871,0.7437,-26.815,2.372,31.377,-31.06,-35.59,0.9241,-0.2361,-0.1863,26.387,-30.594,76.342,-74.00,-26.80,-28.03,-22.10,5.93
8313,2617.44,2875.31,3300.00,-0.0701,0.2183,1.0488,2.596,-5.076,-31.273,-0.27,3.77,0.5789,-0.3010,0.7043,-0.921,4.235,52.675,-31.12,-35.36,0.8885,-0.3151,-0.1300,35.822,-16.930,49.334,-74.15,-28.00,-27.61,-22.38,5.23
8338,493.19,324.76,62.05,0.0938,0.0950,1.2925,5.619,0.802,-12.357,-0.32,3.91,0.5640,-0.5449,0.7815,40.529,26.830,84.247,-30.46,-34.36,0.8600,-0.2123,0.0875,28.127,-6.808,41.212,-74.33,-28.11,-27.17,-22.66,4.52
8352,774.43,977.51,808.28,0.1807,0.4736,1.3379,15.344,-3.962,-12.998,-0.52,4.45,0.5667,-0.6780,0.8225,46.285,29.761,74.980,-29.98,-33.80,0.7886,-0.2377,0.1084,26.265,-24.656,51.212,-74.63,-28.48,-26.72,-22.92,3.80
8377,1981.61,1804.32,2012.23,0.1714,0.1909,1.2485,3.115,-2.298,3.231,-0.72,4.61,0.5906,-0.7988,0.8909,22.773,4.204,24.767,-29.80,-33.40,0.7935,-0.4384,-0.1567,20.173,-47.098,34.525,-75.48,-29.61,-26.27,-23.20,3.06
8392,1136.26,694.65,610.04,0.1702,0.2908,1.4819,6.291,-8.618,0.956,-0.96,4.83,0.6482,-0.7993,0.9050,0.575,-9.536,-2.409,-29.91,-33.56,0.9307,-0.4786,-0.4097,24.478,-16.274,4.525,-75.32,-31.28,-25.84,-23.44,2.40
8417,1714.07,2226.59,2267.69,0.1140,0.0991,1.1702,1.894,-2.954,-11.822,-1.12,4.87,0.6877,-0.6108,0.9224,10.865,-21.353,-39.539,-30.47,-33.29,0.9109,-0.4893,-0.0276,35.929,25.833,-0.666,-74.42,-31.64,-25.47,-23.59,1.88
8431,2668.21,3300.00,3300.00,0.1709,0.0427,1.2422,-6.839,6.298,13.170,-1.17,4.72,0.6660,-0.5254,0.8970,-9.028,-49.216,-40.134,-31.22,-33.36,0.8260,-0.5815,0.1926,16.906,14.047,-10.544,-73.80,-32.20,-25.17,-23.68,1.49
8456,541.54,57.22,0.00,-0.0459,-0.0671,1.1572,-9.587,4.725,27.918,-0.98,4.32,0.6094,-0.4785,0.6694,-20.738,-71.445,-24.150,-33.06,-33.91,0.9336,-0.5431,0.0552,-8.178,-21.739,-19.093,-74.05,-33.44,-25.04,-23.80,1.24
8471,463.37,263.52,0.00,0.0024,-0.0137,1.3782,1.573,-7.198,16.285,-1.07,4.25,0.5562,-0.5205,0.5317,4.117,-55.353,-20.455,-33.93,-34.06,0.9485,-0.5573,-0.0739,-12.209,-27.938,-39.383,-74.15,-34.90,-24.97,-23.90,1.07
8495,2633.55,2970.40,3300.00,0.0212,0.0007,1.2192,3.665,-7.122,11.949,-1.24,4.25,0.4993,-0.6008,0.5210,24.956,-5.201,-28.440,-34.02,-33.76,1.0067,-0.4274,0.0433,-25.796,-27.739,-69.338,-74.68,-36.51,-24.90,-24.03,0.87
8510,1843.81,1639.93,1883.30,0.0254,0.0369,1.2034,-3.419,0.588,-0.433,-1.23,4.15,0.5142,-0.5820,0.5715,21.582,9.074,-46.287,-33.85,-33.68,1.0337,-0.3575,-0.0665,-35.186,-39.052,-74.162,-75.17,-38.30,-24.82,-24.18,0.64
8535,997.66,1298.24,1098.39,0.0459,0.0295,1.1799,0.199,5.244,0.987,-1.12,4.10,0.5430,-0.4148,0.6399,2.132,11.731,-76.134,-33.60,-33.61,1.1091,-0.2372,-0.1534,-38.178,-36.991,-69.979,-76.08,-40.92,-24.74,-24.39,0.35
8550,1968.72,2573.11,2642.42,0.1487,0.0378,1.2163,-0.335,-4.710,-5.578,-1.31,4.05,0.5503,-0.3193,0.7095,-14.204,11.670,-72.928,-33.47,-33.63,1.1086,-0.1730,-0.1808,-39.857,-30.762,-56.284,-76.54,-43.39,-24.65,-24.61,0.04
8574,868.72,289.30,179.71,0.2480,0.0718,1.1294,2.993,-3.305,17.033,-1.61,4.12,0.5254,-0.2087,0.7615,0.407,9.089,-55.203,-33.25,-33.25,1.1561,-0.0798,-0.0479,-49.903,-21.266,-42.788,-77.23,-46.16,-24.52,-24.84,-0.32
8589,452.89,0.00,0.00,0.0671,0.1021,1.2327,6.734,2.344,11.597,-1.60,4.23,0.5161,-0.2007,0.7441,-14.631,0.143,-48.287,-33.26,-33.10,1.2109,-0.0275,-0.0447,-45.751,-29.495,-32.437,-77.86,-48.86,-24.40,-25.09,-0.69
8614,2832.60,3300.00,3300.00,0.1619,0.0447,0.9187,11.069,3.122,7.628,-1.69,4.47,0.4456,-0.1904,0.6921,-30.326,-11.598,-22.165,-33.51,-33.48,1.1396,-0.0084,-0.4076,-39.980,-26.075,-10.162,-78.35,-52.43,-24.30,-25.36,-1.06
8628,2488.50,2718.17,3300.00,-0.2659,0.0044,1.1785,-7.373,1.641,-8.143,-1.38,4.28,0.4353,-0.2190,0.6548,-6.540,0.341,-9.203,-33.48,-33.28,1.0474,0.0363,-0.6774,-21.048,7.085,-0.177,-77.82,-48.15,-24.23,-25.59,-1.36
8653,581.03,563.30,270.77,0.0396,0.0005,1.1301,-7.175,0.466,-15.975,-1.38,4.02,0.3728,-0.2759,0.7251,9.857,16.219,2.171,-32.93,-32.79,1.0750,0.0316,-0.3397,-1.002,62.261,17.426,-76.20,-43.71,-24.13,-25.70,-1.57
8668,1236.19,1637.51,1598.02,-0.0215,-0.0042,0.8999,-6.793,3.947,-15.593,-1.27,3.83,0.3792,-0.3159,0.7537,-13.608,13.609,16.415,-32.57,-32.78,1.0588,-0.0089,-0.1750,8.448,65.009,22.952,-75.36,-46.26,-24.01,-25.74,-1.73
8693,1385.27,1011.36,1031.50,-0.1323,0.0867,1.3066,-3.770,2.710,-7.838,-1.07,3.74,0.3872,-0.3630,0.7009,-18.051,9.609,31.560,-32.21,-33.11,0.9856,0.0012,0.0382,11.013,53.711,22.403,-74.30,-45.03,-23.90,-25.72,-1.83
8707,808.28,309.45,127.33,-0.2051,0.1047,1.1235,-1.648,0.282,10.895,-0.83,3.75,0.3889,-0.3979,0.6565,-28.143,13.471,46.782,-31.91,-33.48,0.9460,0.0076,-0.0095,22.066,32.688,30.082,-74.13,-40.98,-23.78,-25.71,-1.93
8732,2236.26,2902.71,3059.05,-0.0156,0.1575,1.1860,-3.602,-5.626,-19.807,-0.94,3.74,0.4685,-0.4194,0.7263,5.002,45.746,39.270,-30.75,-33.29,0.9950,-0.0522,-0.1897,17.852,38.856,57.762,-73.28,-43.02,-23.59,-25.63,-2.05
8747,2687.55,3180.73,3300.00,0.1008,0.0566,1.2505,0.917,-0.908,-3.639,-1.03,3.73,0.4927,-0.4626,0.8621,11.766,50.021,39.362,-29.95,-33.02,0.9805,-0.1353,-0.2052,14.738,46.948,52.830,-72.66,-44.88,-23.34,-25.51,-2.17
8772,516.56,243.37,0.00,-0.0044,0.0437,1.1873,0.062,7.046,1.109,-0.83,3.70,0.6042,-0.5166,0.9656,10.071,31.135,46.141,-29.17,-32.68,0.8491,-0.1584,-0.0532,22.417,55.741,58.571,-71.42,-45.61,-23.08,-25.32,-2.25
8786,670.48,774.43,572.97,0.0010,0.0444,1.1831,-0.060,-0.802,0.407,-0.83,3.67,0.6108,-0.5508,0.9861,-3.899,9.364,42.553,-29.02,-32.66,0.8346,-0.2601,0.1226,19.501,47.573,55.807,-70.73,-45.71,-22.82,-25.10,-2.28
8811,2142.78,2029.16,2274.95,0.0273,0.0405,1.2192,-0.121,-5.855,1.720,-0.98,3.63,0.5754,-0.6050,0.9331,-6.204,-18.132,31.973,-29.42,-32.82,0.8743,-0.4160,-0.0105,17.578,27.329,33.029,-69.94,-46.20,-22.60,-24.83,-2.23
8826,1307.11,946.08,863.88,0.0005,0.0435,1.1904,-0.060,2.847,0.514,-0.92,3.60,0.5449,-0.5891,0.8550,-12.891,-27.078,27.835,-29.78,-33.04,0.8475,-0.3673,0.1010,18.234,26.474,19.456,-69.48,-46.51,-22.42,-24.55,-2.13
8851,1482.78,1939.71,1940.51,-0.0974,0.0261,1.2073,-1.450,4.237,1.109,-0.70,3.51,0.5386,-0.5273,0.6973,-28.983,-35.765,22.308,-30.68,-33.83,0.8785,-0.4290,0.0302,21.608,4.520,-0.773,-69.26,-46.77,-22.33,-24.29,-1.96
8865,2333.77,2967.18,3236.34,-0.0540,0.0464,1.2566,-0.946,-6.221,-7.151,-0.73,3.47,0.5410,-0.5242,0.6409,-0.647,-17.872,20.675,-30.99,-33.94,0.8219,-0.3698,0.0374,19.486,-1.236,-14.055,-69.20,-47.24,-22.27,-24.04,-1.77
8890,644.69,258.68,0.00,0.0850,0.1133,1.2434,2.611,-5.321,-10.983,-0.92,3.57,0.5413,-0.6213,0.6462,28.483,11.761,24.843,-30.71,-33.45,0.7953,-0.3904,0.0835,4.692,-7.205,-28.284,-69.26,-47.74,-22.18,-23.80,-1.62
8905,502.86,296.56,3.22,0.1147,0.0127,1.1716,-0.900,0.847,-4.021,-1.00,3.50,0.5442,-0.7043,0.7053,22.407,7.334,11.667,-30.56,-33.36,0.8759,-0.4117,0.0376,-5.415,-9.220,-44.376,-69.30,-48.56,-22.08,-23.57,-1.49
8929,2632.75,2930.11,3300.00,-0.0093,0.0537,1.1812,0.092,4.481,1.918,-0.87,3.48,0.5811,-0.7173,0.7864,5.201,4.311,-23.295,-30.42,-33.41,0.9200,-0.2449,0.0320,-19.934,-3.343,-53.139,-69.50,-49.72,-21.99,-23.38,-1.40
8944,1952.60,1767.25,2023.52,0.0068,0.0491,1.1924,-0.030,-0.405,1.063,-0.86,3.46,0.5791,-0.6509,0.8276,-5.273,4.967,-35.218,-30.32,-33.58,0.9536,-0.2312,0.1726,-14.835,-14.854,-49.246,-69.78,-50.00,-21.89,-23.23,-1.34
8969,885.64,1112.09,927.55,0.0195,0.0522,1.2053,0.001,-1.443,-0.280,-0.90,3.44,0.6091,-0.4954,0.7673,-33.425,-18.773,-46.119,-30.84,-34.38,1.0840,-0.2870,0.0312,-27.354,-28.869,-60.193,-70.59,-51.34,-21.84,-23.14,-1.30
8984,1678.61,2183.88,2249.16,0.0239,0.0581,1.1833,0.062,-1.244,-0.723,-0.92,3.43,0.5874,-0.4128,0.6680,-25.181,-27.277,-42.669,-31.35,-34.69,1.1108,-0.1696,0.1200,-29.766,-32.656,-67.964,-71.24,-51.84,-21.82,-23.10,-1.27
9008,1062.93,598.75,425.49,0.0405,-0.0195,1.1965,1.329,-3.748,0.758,-1.03,3.37,0.4966,-0.3481,0.5012,-25.654,-16.391,-25.951,-31.91,-35.32,1.2330,-0.0231,-0.0034,-22.941,-57.449,-57.994,-72.99,-53.33,-21.84,-23.18,-1.33
9023,551.21,90.26,0.00,0.1123,0.0588,1.1621,-2.976,-5.214,5.918,-1.20,3.32,0.4192,-0.3677,0.3882,-26.891,-1.277,-14.928,-32.05,-35.87,1.2705,-0.0386,-0.2743,-21.781,-52.411,-52.574,-73.84,-56.02,-21.86,-23.30,-1.44
9048,2669.01,3300.00,3300.00,0.0552,0.0679,1.2324,-0.473,-10.771,3.078,-1.48,3.31,0.3394,-0.3530,0.3159,-47.608,38.769,-19.142,-31.18,-37.27,1.1455,0.1917,-0.2344,-8.728,-4.427,-17.719,-73.97,-52.30,-21.79,-23.40,-1.61
9062,2602.12,2876.12,3300.00,0.1416,0.0122,1.0850,-1.877,1.580,-6.082,-1.58,3.23,0.3816,-0.2725,0.3848,-34.021,77.349,-26.150,-30.23,-37.72,1.0731,0.1538,-0.2000,-9.384,13.696,9.517,-73.83,-48.54,-21.65,-23.47,-1.82
9087,524.62,397.29,0.00,0.3748,-0.0110,1.2222,-7.770,-1.366,7.246,-1.92,2.96,0.4331,-0.2000,0.6968,-0.097,118.235,7.667,-27.37,-37.29,1.0720,0.0004,-0.1416,10.387,36.367,24.189,-73.12,-43.72,-21.30,-23.47,-2.17
9102,1050.04,1351.43,1166.08,0.2397,-0.0559,1.2197,-1.847,0.740,-4.586,-2.10,2.82,0.4504,-0.2544,0.9463,43.155,137.807,26.186,-25.35,-36.22,1.1075,-0.0186,-0.0656,10.707,49.482,27.349,-72.68,-45.97,-20.82,-23.43,-2.61
9127,1562.56,1270.84,1396.56,0.0208,-0.1208,1.6064,-16.518,1.931,-11.227,-2.02,2.28,0.4543,-0.4905,1.2407,40.193,100.738,55.850,-22.77,-34.96,1.0594,-0.1178,0.0334,3.089,48.596,46.647,-71.72,-46.46,-20.20,-23.32,-3.13
9141,933.19,475.46,206.30,0.0281,-0.0425,1.1157,-11.892,0.389,-14.998,-2.01,2.02,0.5571,-0.6013,1.1479,13.124,30.952,52.064,-22.33,-34.62,1.0437,-0.1537,-0.1350,4.753,41.344,51.945,-71.27,-48.09,-19.59,-23.20,-3.61
9166,1989.67,2538.46,2822.93,0.0955,-0.0544,0.8103,-4.518,-5.137,-18.128,-2.22,1.79,0.3103,-0.6243,1.0752,-28.937,-17.552,19.957,-22.59,-35.23,0.8586,-0.0817,0.0552,9.440,42.245,43.013,-70.48,-48.02,-19.03,-23.01,-3.98
9181,2555.38,3132.38,3300.00,-0.0706,0.2910,0.7874,14.047,0.206,-12.494,-2.08,2.37,0.1396,-0.6165,0.8442,-59.288,-33.811,14.095,-22.78,-36.11,0.8254,-0.0704,0.0900,3.242,36.428,44.296,-70.19,-47.77,-18.53,-22.82,-4.29
9206,608.42,292.53,0.00,-0.2764,0.1746,1.7690,8.352,11.748,-7.257,-1.58,2.63,-0.0420,-0.4861,0.4702,-109.563,-34.758,-12.608,-23.10,-38.97,0.7850,-0.1903,-0.0507,16.830,50.841,39.013,-69.07,-48.50,-18.12,-22.61,-4.49
9220,683.37,661.61,271.58,-0.1667,-0.0359,1.4133,-18.091,1.092,-18.586,-1.39,2.29,-0.1924,-0.2896,0.4592,-68.998,-6.559,-23.386,-22.34,-39.82,0.8540,-0.3716,0.0698,22.616,47.192,28.357,-68.33,-48.80,-17.70,-22.37,-4.67
9245,2225.79,2237.07,2951.06,-0.1008,-0.0371,1.5149,-9.083,-5.092,-8.479,-1.41,2.00,0.2078,-0.0811,0.4238,-48.372,71.990,41.026,-20.66,-40.42,0.8998,-0.7754,0.3083,35.914,-5.175,-26.452,-68.03,-48.31,-17.19,-22.12,-4.93
9260,1486.81,1178.97,1149.96,-0.1304,0.0493,1.1316,2.398,5.763,-6.433,-1.17,2.04,0.4609,0.0750,0.5105,-6.051,103.914,42.141,-19.59,-39.53,0.8567,-0.7140,0.1804,28.295,9.115,-82.513,-67.53,-48.46,-16.66,-21.88,-5.21
9284,1335.31,1689.08,1689.08,-0.0266,0.1279,1.2964,11.039,-14.863,-8.341,-1.49,2.38,0.2744,-0.0745,0.6299,-65.135,101.334,199.392,-17.21,-40.46,0.9747,-0.1874,0.0297,17.639,-17.999,-115.750,-68.20,-48.68,-15.98,-21.67,-5.69
9299,2101.69,2694.80,3084.03,0.0505,0.0662,1.1411,-12.060,-6.878,3.323,-1.61,2.23,-0.0115,-0.2209,0.7361,9.827,101.471,222.553,-15.38,-39.84,1.2562,-0.0548,0.0121,10.891,-40.152,-64.620,-69.16,-49.10,-15.21,-21.54,-6.33
9324,803.44,360.22,0.00,0.1243,0.0559,1.1218,-0.778,6.496,-7.929,-1.54,2.22,0.5322,0.5085,-1.3015,503.689,-454.544,-302.577,-26.53,-23.64,1.0853,-0.1813,-0.8326,-27.842,4.734,-50.925,-68.70,-52.15,-15.28,-21.39,-6.12
9339,585.86,274.80,0.00,-0.0615,0.1692,0.9072,0.123,1.046,7.597,-1.42,2.39,0.7700,-2.0000,1.9999,-496.845,90.112,262.461,-25.01,-31.19,0.8521,-0.1836,-0.6758,8.097,97.115,-42.376,-66.94,-54.29,-15.24,-21.14,-5.90
9363,2576.34,3061.47,3300.00,-0.0464,0.1548,0.9807,-10.549,20.802,0.590,-0.83,2.27,0.2375,0.1360,0.4072,227.827,-126.559,-54.180,-28.18,-24.65,0.9098,-0.1549,0.3407,17.959,93.741,-71.338,-64.67,-53.25,-15.47,-20.79,-5.31
9378,2149.23,2089.60,2860.00,-0.1692,0.0681,1.0759,8.367,-13.397,-10.280,-0.83,2.41,0.5537,-0.1936,0.5691,-26.677,-130.987,139.255,-30.34,-24.91,1.0698,-0.2606,0.3386,25.746,63.375,-87.735,-63.83,-52.57,-15.84,-20.40,-4.56
9403,780.07,868.72,460.95,0.0513,0.1011,1.1089,-18.656,10.664,-12.509,-0.61,2.01,-0.0435,-0.3833,0.5935,-79.578,-121.414,104.263,-32.62,-27.01,1.1324,0.2900,0.3124,-13.857,64.642,-75.903,-62.37,-51.00,-16.36,-19.95,-3.60
9417,1481.98,1871.21,1958.24,0.0669,0.1411,1.8936,45.634,-10.618,18.147,-0.79,2.71,-0.0171,-0.7654,0.1704,-56.036,-103.872,138.919,-33.43,-28.82,0.8716,0.5243,0.4711,9.288,37.360,-65.887,-61.61,-48.88,-16.88,-19.47,-2.59
9442,1237.00,866.30,672.89,-0.0564,0.0229,1.1440,-15.709,-7.962,9.231,-0.91,2.30,-0.1907,-0.8062,0.4561,6.911,17.181,134.003,-32.11,-29.28,1.2839,0.5895,0.5565,-4.804,-2.121,4.281,-61.59,-47.09,-17.26,-19.01,-1.75
9457,725.27,353.77,0.00,0.1108,0.0630,1.2993,7.741,-0.267,1.414,-0.99,2.42,0.2576,-0.6150,0.1064,201.506,-115.750,-22.211,-33.56,-27.43,1.0962,0.5096,0.4009,-7.980,-37.343,53.594,-62.08,-45.23,-17.72,-18.62,-0.90
9482,2415.16,2973.63,3300.00,0.0420,-0.0159,1.1868,-5.190,4.344,24.681,-0.91,2.23,0.3845,-0.6182,0.3459,-44.067,-45.857,-16.577,-34.58,-29.17,1.0605,0.0863,0.0734,-14.209,-47.495,79.792,-63.67,-43.68,-18.22,-18.36,-0.14
9496,2497.36,2690.77,3300.00,0.0239,0.0344,1.1851,8.627,-2.481,-12.906,-0.95,2.34,0.4167,-0.4189,0.3193,103.201,5.028,34.828,-34.58,-28.17,0.9089,-0.1752,-0.0035,2.921,-45.831,88.815,-64.63,-44.58,-18.68,-18.19,0.49
9521,605.20,464.18,118.46,0.0476,-0.0703,1.2058,-5.541,-3.916,13.323,-1.07,2.09,0.3826,-0.7791,0.6418,-51.883,-1.598,35.270,-34.34,-29.88,0.7986,-0.5051,-0.1127,-1.506,-23.022,45.029,-65.04,-45.78,-19.09,-18.06,1.03
9536,954.14,1145.93,1017.00,-0.0330,0.1135,1.2324,3.573,-4.496,-4.830,-1.08,2.21,0.1084,-0.7781,0.2820,-22.921,-51.475,14.537,-34.54,-31.01,0.7604,-0.6385,-0.1724,7.425,-0.732,-13.063,-64.73,-46.86,-19.48,-17.91,1.57
9561,1794.65,1599.63,1733.41,0.0647,-0.0193,1.1528,-3.984,4.664,7.460,-1.01,2.05,0.0173,-0.8787,0.8245,3.140,31.441,-37.218,-33.10,-31.25,1.0203,-0.2161,-0.0415,1.303,46.428,-59.338,-63.86,-47.91,-19.74,-17.71,2.03
9575,1107.25,747.03,542.34,-0.0127,-0.0298,1.2388,-0.350,-2.679,-2.464,-1.01,1.97,0.1196,-0.7739,0.5891,-63.379,34.967,-34.195,-32.08,-32.58,1.0735,-0.1162,0.1458,-3.781,45.222,-51.261,-63.54,-47.78,-19.92,-17.50,2.42
9600,1828.50,2282.20,2439.34,0.0142,0.0447,1.1897,-0.076,-2.924,0.865,-1.08,1.97,0.2576,-0.4517,0.3713,-2.677,53.746,-51.615,-30.61,-33.01,1.0853,0.3030,0.4321,9.456,33.039,-64.895,-62.75,-45.89,-19.98,-17.25,2.72
9615,2541.69,3129.16,3300.00,0.0325,0.0552,1.2292,0.092,1.244,-1.028,-1.07,1.99,0.2456,-0.4827,0.4470,-35.227,58.280,-40.699,-29.57,-33.79,1.1967,0.4230,0.4834,-4.025,5.803,-17.460,-62.64,-44.20,-19.96,-17.01,2.94
9639,606.01,240.15,0.00,0.0486,0.0461,1.2285,0.001,-1.916,1.567,-1.14,1.99,0.1902,-0.5901,0.8181,-13.578,46.876,-42.775,-28.05,-34.17,1.1173,0.3524,0.3307,-2.911,-28.976,23.929,-63.43,-42.46,-19.83,-16.84,2.99
9654,579.41,471.43,95.90,0.0044,0.0352,1.1819,-0.350,-2.710,-2.632,-1.16,1.98,0.2297,-0.4250,0.4756,-52.570,29.929,-20.638,-27.46,-35.07,1.1572,0.1917,0.2081,-0.544,-43.098,52.891,-64.30,-40.76,-19.66,-16.74,2.92
9679,2461.90,2635.97,3300.00,0.0278,0.0342,1.2012,-0.259,0.618,1.399,-1.15,1.97,0.0898,-0.9187,1.2769,1.262,39.853,-30.531,-26.00,-35.05,0.9323,-0.1967,-0.0183,-4.270,-28.136,54.800,-65.26,-41.96,-19.41,-16.71,2.70
9693,1588.35,1278.90,1353.04,0.0444,0.0327,1.2236,-0.305,2.771,-1.960,-1.13,1.95,0.1213,-0.4443,0.5691,-16.921,42.601,-22.272,-25.06,-35.35,0.8610,-0.2837,-0.0177,12.845,-14.808,35.945,-65.60,-42.81,-19.11,-16.71,2.40
9718,1173.33,1510.99,1264.40,0.0139,0.0586,1.2002,0.016,-2.817,1.399,-1.19,1.97,0.1370,-0.6001,0.9397,-22.601,18.250,-31.050,-24.26,-35.84,0.7745,-0.4052,-0.0604,0.921,5.619,-4.681,-65.40,-43.90,-18.77,-16.70,2.07
9733,2149.23,2834.21,3147.69,0.0361,0.0483,1.2178,0.108,-2.160,-0.006,-1.23,1.98,0.1506,-0.5173,0.7871,-12.357,19.944,-18.623,-23.67,-35.97,0.9519,-0.3346,-0.0452,1.272,20.138,-40.529,-65.21,-44.96,-18.41,-16.66,1.75
9758,631.79,0.00,0.00,0.0244,0.0552,1.2078,0.367,0.389,1.002,-1.22,2.00,0.1855,-0.5400,0.9248,-9.792,7.013,-5.142,-23.22,-36.09,1.0883,-0.0970,0.0966,-0.377,31.741,-44.009,-64.79,-44.97,-18.05,-16.61,1.44
9772,243.37,0.00,0.00,0.0225,0.0425,1.2007,-0.091,0.847,-1.181,-1.20,2.00,0.1414,-0.5776,0.7808,-25.074,-5.506,4.263,-23.00,-36.46,0.9258,0.1682,0.2166,-4.163,29.970,-43.460,-64.54,-43.37,-17.69,-16.53,1.16
9787,378.75,0.00,0.00,0.0249,0.0464,1.1997,-0.076,-2.634,0.620,-1.24,2.00,0.1792,-0.6306,0.7964,-1.761,-10.483,4.141,-22.89,-36.52,1.1570,0.2422,0.2938,8.738,11.635,-37.551,-64.52,-41.59,-17.35,-16.46,0.89
9812,2512.67,3300.00,3300.00,0.0273,0.0396,1.2046,-0.015,2.649,-0.173,-1.18,2.00,0.1409,-0.7117,0.8342,18.285,-7.567,11.347,-22.76,-36.16,1.0764,0.3025,0.3118,2.372,-9.602,12.097,-64.82,-39.82,-17.03,-16.42,0.61
9826,1291.79,945.27,985.57,0.0232,0.0454,1.1919,0.062,0.710,0.239,-1.17,2.00,0.1477,-0.6213,0.7549,3.903,-5.827,11.072,-22.56,-36.17,1.1056,0.1746,0.2695,-4.132,-21.816,29.700,-65.31,-38.42,-16.72,-16.42,0.30
9851,1504.54,1991.28,1813.99,0.0269,0.0444,1.1951,-0.091,-0.985,0.208,-1.19,2.00,0.1758,-0.6902,0.7395,-11.089,-13.201,4.156,-22.63,-36.57,0.9452,-0.0461,0.0802,-9.628,-27.816,45.792,-66.37,-38.48,-16.44,-16.49,-0.06
9866,2706.89,3300.00,3300.00,0.0295,0.0454,1.1990,0.031,-0.435,-0.036,-1.20,2.01,0.1836,-0.6130,0.7053,9.384,-3.094,9.988,-22.44,-36.53,0.8774,-0.1901,-0.0259,-1.903,-17.709,31.304,-66.85,-39.70,-16.15,-16.59,-0.44
9890,347.33,0.00,0.00,0.0205,0.0454,1.1899,-0.030,1.504,-0.051,-1.16,2.01,0.1736,-0.6826,0.7422,-2.067,-4.376,7.286,-22.30,-36.70,0.9967,-0.3254,-0.0248,0.952,4.551,9.151,-66.84,-40.77,-15.89,-16.68,-0.80
9905,120.07,0.00,0.00,0.0269,0.0474,1.2026,0.047,-1.809,0.132,-1.19,2.02,0.1570,-0.6853,0.7361,-7.715,-8.529,2.690,-22.15,-36.93,0.8822,-0.2924,-0.0015,5.165,12.719,-14.529,-66.75,-41.68,-15.63,-16.76,-1.14
9920,443.22,467.40,0.00,0.0259,0.0547,1.2014,-0.091,-0.252,-0.051,-1.19,2.03,0.1848,-0.6841,0.7456,-1.364,-3.933,2.492,-21.97,-37.07,0.9938,-0.1504,0.0546,-2.270,24.474,-35.231,-66.69,-42.28,-15.37,-16.83,-1.46
9945,2279.78,2352.31,3300.00,0.0195,0.0469,1.2021,0.108,1.168,-0.158,-1.16,2.03,0.1553,-0.6587,0.7590,15.964,2.494,0.247,-21.65,-36.75,1.0135,0.0231,0.2128,-7.812,29.039,-23.765,-66.21,-41.50,-15.11,-16.87,-1.75
9959,1023.44,654.36,614.07,0.0195,0.0425,1.1970,-0.106,0.267,0.040,-1.15,2.03,0.1633,-0.6289,0.7744,-2.326,-1.246,1.499,-21.42,-36.83,0.9985,0.1189,0.2860,8.204,6.138,-30.452,-66.25,-40.11,-14.86,-16.90,-2.04
9984,1818.83,2294.29,2334.58,0.0310,0.0430,1.2058,0.108,-0.618,0.040,-1.17,2.03,0.1790,-0.6401,0.7349,-5.074,-0.926,2.461,-21.22,-37.04,1.0802,0.2175,0.2720,-4.819,-12.335,2.571,-66.67,-38.65,-14.60,-16.96,-2.36
9999,3300.00,3300.00,3300.00,0.0242,0.0457,1.1985,-0.045,1.702,-0.082,-1.15,2.04,0.1670,-0.6545,0.7480,7.689,1.074,0.522,-20.97,-37.01,1.0547,0.1791,0.1641,-0.712,-15.892,16.998,-67.10,-36.94,-14.35,-17.05,-2.69
10023,0.00,0.00,0.00,0.0251,0.0449,1.2017,-0.045,-0.725,0.025,-1.17,2.04,0.1621,-0.6389,0.7615,-3.883,-1.124,1.026,-20.76,-37.17,0.9922,0.0052,0.0864,-2.972,-18.991,36.372,-67.92,-36.20,-14.10,-17.18,-3.08
10038,0.00,0.00,0.00,0.0278,0.0444,1.2014,-0.076,-1.290,0.101,-1.19,2.04,0.1787,-0.6567,0.7478,-6.143,-2.101,-0.440,-20.58,-37.34,0.9871,-0.1664,0.0271,2.341,-14.121,27.594,-68.37,-37.06,-13.86,-17.34,-3.48
10053,510.92,790.55,0.00,0.0312,0.0476,1.1982,0.077,-0.374,0.071,-1.20,2.04,0.1660,-0.6570,0.7417,-0.876,-0.025,0.858,-20.36,-37.44,0.9240,-0.2255,0.0466,-1.293,-3.266,11.517,-68.57,-37.90,-13.61,-17.50,-3.89
10077,2150.84,1805.93,2534.43,0.0208,0.0474,1.1975,0.031,1.000,0.010,-1.17,2.05,0.1809,-0.6348,0.7683,6.544,0.051,-0.882,-20.16,-37.32,0.9664,-0.2083,0.0182,3.532,4.780,-12.284,-68.64,-38.76,-13.37,-17.66,-4.29
10092,568.13,16.92,0.00,0.0256,0.0500,1.1997,-0.045,-0.939,0.040,-1.19,2.06,0.1628,-0.6257,0.7766,-1.578,0.357,-0.928,-19.94,-37.37,0.9774,-0.0938,0.0393,0.631,18.688,-23.246,-68.68,-39.32,-13.13,-17.80,-4.67
10117,2216.92,2374.87,2901.90,0.0266,0.0488,1.2021,0.092,-0.053,-0.006,-1.19,2.06,0.1560,-0.6602,0.7295,-0.784,0.296,-1.004,-19.71,-37.49,1.0715,0.0155,0.1725,-1.644,23.039,-18.529,-68.36,-38.47,-12.89,-17.92,-5.02
10132,3300.00,3300.00,3300.00,0.0166,0.0474,1.1958,0.001,1.183,-0.250,-1.16,2.07,0.1533,-0.6421,0.7598,12.315,1.196,0.705,-19.47,-37.36,0.9917,0.0891,0.2642,-0.148,15.085,-16.635,-68.26,-37.33,-12.65,-18.02,-5.36
10157,0.00,0.00,0.00,0.0217,0.0481,1.1821,0.031,-0.649,0.025,-1.18,2.07,0.1731,-0.6335,0.7708,-0.479,1.883,2.171,-19.24,-37.42,1.0684,0.1360,0.2600,-3.170,-5.968,4.983,-68.53,-36.11,-12.42,-18.13,-5.71
10171,0.00,0.00,0.00,0.0308,0.0449,1.1951,0.031,-1.076,0.208,-1.20,2.08,0.1816,-0.6453,0.7551,-5.670,-2.269,0.583,-19.09,-37.56,1.0500,0.0907,0.1752,0.509,-16.778,13.120,-68.99,-34.83,-12.18,-18.26,-6.08
10186,373.92,1038.75,905.79,0.0186,0.0464,1.2019,0.062,0.740,-0.051,-1.18,2.08,0.1423,-0.6384,0.7502,0.071,0.250,1.301,-18.87,-37.61,1.0554,0.0111,0.1101,-2.193,-18.564,18.250,-69.56,-34.05,-11.95,-18.43,-6.48
10210,1824.47,1639.93,1612.53,0.0198,0.0439,1.1943,0.047,0.481,-0.097,-1.17,2.08,0.1582,-0.6431,0.7556,0.544,0.830,1.118,-18.65,-37.66,0.9917,-0.1443,0.0496,-2.361,-11.541,18.128,-70.07,-34.85,-11.72,-18.62,-6.90
10225,0.00,95.09,131.36,0.0249,0.0471,1.1960,0.047,-0.420,0.040,-1.17,2.09,0.1855,-0.6501,0.7654,0.850,-0.315,-1.447,-18.49,-37.70,0.9436,-0.1455,0.0367,-2.865,-0.793,8.601,-70.30,-35.71,-11.50,-18.81,-7.31
10250,3038.10,3096.12,2948.64,0.0300,0.0500,1.1982,0.047,0.389,0.101,-1.17,2.09,0.1821,-0.6560,0.7532,-2.357,-0.498,-0.684,-18.34,-37.82,0.9674,-0.1515,0.0590,2.982,6.535,-8.819,-70.34,-36.30,-11.28,-18.99,-7.72
10264,3300.00,1932.45,1739.05,0.0205,0.0510,1.1968,-0.106,0.282,0.010,-1.16,2.10,0.1641,-0.6467,0.7522,1.689,0.112,0.721,-18.16,-37.86,0.9678,-0.0703,0.0897,-0.407,15.146,-17.857,-70.39,-36.34,-11.06,-19.17,-8.11
10289,386.01,1237.00,1224.91,0.0840,0.1042,1.2744,1.085,16.282,5.155,-0.82,2.18,0.1426,-0.5950,0.7356,1.475,9.212,-5.905,-17.75,-37.84,1.0554,0.0354,0.1501,1.486,19.726,-14.529,-70.13,-35.31,-10.86,-19.34,-8.48
10304,0.00,653.55,24.18,-0.0283,0.0132,1.0183,-9.709,-21.931,-1.044,-1.08,2.01,0.1929,-0.6780,0.7715,9.811,-9.689,3.194,-17.74,-37.77,1.0201,0.0332,0.2493,14.906,-2.610,-16.895,-70.29,-34.24,-10.65,-19.48,-8.84
10329,3300.00,3300.00,3300.00,0.2617,-0.0825,1.2603,20.138,23.015,15.155,-0.73,2.39,0.0742,-0.5679,0.6479,1.063,26.357,17.163,-16.84,-37.82,1.0759,0.0867,0.1554,15.791,-7.678,-1.002,-70.68,-32.59,-10.41,-19.68,-9.26
10343,680.15,713.99,346.52,0.0483,-0.0881,1.0447,-13.144,8.603,-12.677,-0.65,2.05,0.2222,-0.7834,0.7808,19.170,-20.315,-14.027,-17.02,-37.69,1.1123,0.0656,0.2086,7.165,-12.915,5.991,-71.03,-31.48,-10.21,-19.88,-9.67
10368,770.40,743.00,776.04,0.0808,0.0271,1.1382,-7.175,-21.031,7.521,-1.23,1.87,0.1714,-0.6360,0.7754,-16.967,4.311,0.217,-16.77,-38.13,1.0161,-0.0217,0.0599,-17.430,-17.297,25.059,-71.76,-31.68,-9.97,-20.09,-10.12
10383,3300.00,3300.00,3300.00,0.0979,0.0300,1.2383,-1.938,-3.779,-5.746,-1.35,1.83,0.1831,-0.6746,0.7122,-0.830,-4.483,1.652,-16.71,-38.25,0.9768,-0.0792,0.0902,-7.812,-13.541,18.601,-72.18,-31.98,-9.73,-20.30,-10.57
10408,0.00,0.00,0.00,0.0212,0.0115,1.1841,4.123,19.733,7.460,-0.86,1.90,0.1724,-0.6243,0.7869,4.651,6.891,-1.203,-16.40,-38.14,0.9254,-0.2218,0.0312,10.341,0.367,3.258,-72.26,-32.73,-9.52,-20.53,-11.01
10422,0.00,0.00,0.00,-0.0417,0.0535,1.1990,-4.030,-10.282,8.697,-0.95,1.86,0.1409,-0.6230,0.7561,-13.715,-7.323,0.934,-16.34,-38.37,0.9377,-0.1315,0.0154,-9.170,15.314,-4.620,-72.23,-33.87,-9.32,-20.74,-11.42
10437,0.00,0.00,0.00,-0.0002,0.0442,1.1777,-2.961,-20.481,-1.273,-1.23,1.82,0.2075,-0.6819,0.7290,-9.914,-3.857,2.431,-16.31,-38.60,1.0040,-0.0981,0.0763,7.486,16.963,-16.361,-72.20,-34.13,-9.10,-20.91,-11.81
10462,0.00,1633.48,1737.44,0.0217,0.0654,1.2002,-2.244,16.282,1.872,-0.83,1.79,0.1394,-0.6375,0.8030,12.575,1.166,1.728,-16.11,-38.30,0.9467,0.0309,0.2251,-1.125,9.543,-19.154,-72.05,-33.32,-8.92,-21.09,-12.18
10476,0.00,1707.62,1755.97,0.0391,0.0940,1.7986,36.734,39.534,23.903,-0.27,2.34,0.1587,-0.6096,0.6978,-11.593,9.929,12.293,-15.84,-38.52,1.1078,-0.0211,0.1361,6.967,13.375,-13.704,-72.08,-32.73,-8.77,-21.30,-12.53
10501,1172.53,698.68,868.72,-0.0549,0.0586,1.2446,2.566,-47.229,6.223,-1.36,2.41,0.2146,-0.6328,0.8762,-14.402,-19.720,4.721,-16.22,-38.81,1.0659,0.0924,0.2786,1.227,-2.579,-1.307,-72.19,-31.68,-8.58,-21.43,-12.85
10516,1313.55,3121.10,2493.33,0.1062,0.0244,1.2957,19.726,-13.031,12.514,-1.61,2.67,0.1575,-0.5935,0.6907,-9.471,28.570,-1.325,-15.69,-38.99,1.0988,0.0643,0.2299,-18.422,-3.419,14.510,-72.35,-31.00,-8.35,-21.54,-13.19
10540,497.22,0.00,0.00,0.0601,-0.0867,1.2070,34.138,9.763,28.865,-1.40,3.36,0.1326,-0.6128,0.7988,-21.853,-4.590,25.454,-15.64,-39.49,1.0724,-0.0117,0.0593,3.715,-11.007,17.929,-72.91,-30.51,-8.14,-21.69,-13.55
10555,849.38,0.00,0.00,0.0002,0.0134,1.1643,5.146,23.809,-5.944,-1.03,3.38,0.1443,-0.6863,0.7444,-6.280,-1.491,-1.020,-15.51,-39.64,0.9354,-0.0532,0.0396,6.448,-23.510,18.281,-73.51,-30.87,-7.97,-21.90,-13.94
10580,3300.00,3300.00,3300.00,0.0999,0.0493,1.2681,3.863,-19.000,10.361,-1.56,3.45,0.2031,-0.6919,0.7546,5.918,1.853,-1.905,-15.38,-39.56,0.9790,-0.1345,-0.0359,7.593,-3.159,8.830,-73.75,-32.17,-7.76,-22.08,-14.32
10594,3300.00,2160.51,2214.51,0.0015,0.0845,1.2090,-0.579,-10.802,-6.601,-1.69,3.45,0.1621,-0.6252,0.7803,13.017,5.517,-3.630,-15.17,-39.35,1.0281,-0.1864,0.0767,-1.720,8.795,5.105,-73.73,-32.90,-7.54,-22.24,-14.69
10619,933.19,743.81,804.25,-0.0085,0.0422,1.1606,3.756,16.679,5.949,-1.24,3.52,0.1633,-0.6562,0.7400,-10.479,-2.849,-0.623,-15.13,-39.65,1.0168,-0.1753,0.1704,10.585,13.146,-14.376,-73.46,-32.91,-7.37,-22.39,-15.02
10634,2596.48,2474.80,2460.29,-0.0195,0.0532,1.1731,0.276,10.282,3.765,-1.05,3.50,0.1702,-0.6572,0.7454,-3.975,0.525,1.408,-15.01,-39.74,0.9579,-0.0126,0.1610,-9.445,16.184,-16.315,-73.37,-32.47,-7.22,-22.54,-15.33
10659,260.29,1949.38,1768.86,0.0684,0.0596,1.2456,-0.060,-17.580,-4.967,-1.52,3.49,0.1904,-0.6418,0.7676,5.781,1.318,-2.653,-14.89,-39.61,1.0942,0.0728,0.1486,-11.522,1.512,-9.796,-73.49,-31.58,-7.03,-22.66,-15.63
10673,0.00,1090.33,1273.26,0.4434,-0.3569,1.0317,-7.816,0.206,34.605,-1.93,2.92,0.2871,-0.6262,0.6521,-28.845,-2.346,42.385,-14.98,-40.10,1.0842,-0.0020,-0.0583,24.188,13.573,-10.925,-73.57,-34.17,-6.84,-22.75,-15.91
10698,0.00,1903.44,1809.16,-0.0852,0.2512,1.0627,2.489,5.947,51.491,-1.66,3.19,0.2842,-0.7996,0.8872,3.475,-58.880,43.240,-16.38,-40.06,1.6332,-0.0502,0.2711,-1.842,-9.465,-13.017,-73.93,-33.74,-6.77,-22.87,-16.10
10713,0.00,2235.46,2279.78,-0.0200,-0.1204,1.1777,-10.198,-25.397,53.811,-1.97,2.86,0.2505,-0.5479,0.7368,-34.418,6.265,33.316,-16.27,-40.48,0.8517,0.1505,0.2310,-22.010,-21.327,48.296,-74.20,-32.72,-6.68,-22.99,-16.30
10738,0.00,0.00,0.00,-0.0652,-0.1187,1.0559,-35.465,-45.702,34.819,-2.97,1.81,0.0676,-0.7576,0.8315,11.506,-3.216,33.011,-16.09,-40.24,0.9441,-0.2051,0.0693,11.532,-30.091,18.555,-74.99,-33.21,-6.52,-23.08,-16.56
10752,0.00,444.03,296.56,0.1370,0.0603,1.3594,9.451,18.008,-27.639,-2.77,1.97,0.0623,-0.6438,0.6401,-5.059,11.853,-2.684,-15.68,-40.41,0.8776,-0.1136,0.0387,-34.636,-3.129,34.174,-75.18,-34.47,-6.35,-23.19,-16.84
10777,3300.00,1109.67,1237.00,0.1707,-0.1196,1.2571,14.077,-1.015,26.758,-2.89,2.16,0.1831,-0.6377,0.7766,-30.586,-1.323,-18.821,-15.60,-41.13,0.8577,-0.2267,0.0195,-2.041,9.741,-6.773,-74.95,-35.53,-6.18,-23.27,-17.09
10792,2128.28,0.00,0.00,0.0676,0.1335,1.2485,-12.534,-15.580,-19.212,-3.12,2.06,0.2297,-0.5938,0.7458,-0.448,6.952,-2.027,-15.46,-41.09,0.9634,-0.1136,0.0441,-2.117,20.413,-22.849,-74.81,-36.22,-5.99,-23.31,-17.32
10817,3300.00,3300.00,3300.00,0.1228,0.0271,1.2786,4.001,1.427,-2.372,-3.13,2.14,0.1843,-0.6111,0.7400,8.178,6.845,1.957,-15.20,-40.86,0.9707,0.0033,0.0883,-2.346,26.993,-28.254,-74.35,-35.51,-5.80,-23.32,-17.53
10831,3300.00,3300.00,3300.00,0.0017,0.0508,1.1729,7.680,32.573,-7.273,-2.60,2.26,0.1550,-0.6272,0.7668,6.163,1.471,4.064,-15.06,-40.74,1.0515,0.0792,0.2538,8.372,17.207,-31.368,-74.14,-34.34,-5.65,-23.36,-17.71
