timestamp_ms,EMG_Quad_mV,EMG_Ham_mV,EMG_Calf_mV,ACC_Quad_X_g,ACC_Quad_Y_g,ACC_Quad_Z_g,GYR_Quad_X_dps,GYR_Quad_Y_dps,GYR_Quad_Z_dps,Pitch_Quad_deg,Roll_Quad_deg,ACC_Ham_X_g,ACC_Ham_Y_g,ACC_Ham_Z_g,GYR_Ham_X_dps,GYR_Ham_Y_dps,GYR_Ham_Z_dps,Pitch_Ham_deg,Roll_Ham_deg,ACC_Calf_X_g,ACC_Calf_Y_g,ACC_Calf_Z_g,GYR_Calf_X_dps,GYR_Calf_Y_dps,GYR_Calf_Z_dps,Pitch_Calf_deg,Roll_Calf_deg,Angle_Quad_Ham_deg,Angle_Quad_Calf_deg,Angle_Ham_Calf_deg
10,3300.00,3300.00,3300.00,-0.2571,0.8538,0.6797,-1.855,0.109,0.298,12.95,51.23,0.0129,-0.8125,0.5837,0.980,-1.222,0.261,-1.06,-54.53,0.0000,0.0000,0.0000,0.000,0.000,0.000,0.00,0.00,0.01,-0.01,-0.02
24,1834.95,937.22,0.00,-0.2600,0.8550,0.6772,-1.031,0.445,-0.008,12.97,51.22,0.0132,-0.8132,0.5825,2.079,-1.329,0.734,-1.07,-54.50,0.0000,0.0000,0.0000,0.000,0.000,0.000,0.00,0.00,0.01,-0.02,-0.03
38,0.00,1610.92,0.00,-0.2644,0.8547,0.6804,-0.176,0.888,-0.618,12.99,51.22,0.0107,-0.8125,0.5925,2.094,-1.313,0.749,-1.08,-54.46,0.0000,0.0000,0.0000,0.000,0.000,0.000,0.00,0.00,0.02,-0.03,-0.05
63,3300.00,3300.00,3300.00,-0.2620,0.8533,0.6777,-2.496,0.048,-0.267,13.00,51.17,0.0132,-0.8140,0.5806,2.522,-0.871,-0.228,-1.10,-54.40,0.0000,0.0000,0.0000,0.000,0.000,0.000,0.00,0.00,0.02,-0.04,-0.06
77,3300.00,3300.00,2617.44,-0.2573,0.8584,0.6838,-2.222,-0.288,0.527,13.00,51.15,0.0151,-0.8154,0.5852,1.193,-0.321,0.597,-1.10,-54.38,0.0000,0.0000,0.0000,0.000,0.000,0.000,0.00,0.00,0.02,-0.05,-0.07
91,2280.59,0.00,0.00,-0.2566,0.8601,0.6736,-1.535,0.140,0.252,13.01,51.14,0.0178,-0.8137,0.5818,1.178,-0.917,0.810,-1.11,-54.37,0.0000,0.0000,0.0000,0.000,0.000,0.000,0.00,0.00,0.02,-0.06,-0.08
116,1891.36,3300.00,3300.00,-0.2532,0.8542,0.6848,-1.931,0.430,0.053,13.02,51.10,0.0176,-0.8127,0.5808,1.957,-1.619,0.734,-1.15,-54.32,0.0000,0.0000,0.0000,0.000,0.000,0.000,0.00,0.00,0.01,-0.07,-0.08
130,3300.00,3300.00,3300.00,-0.2522,0.8555,0.6772,-1.626,-0.441,0.710,13.01,51.08,0.0186,-0.8152,0.5813,0.781,-2.367,0.475,-1.18,-54.32,0.0000,0.0000,0.0000,0.000,0.000,0.000,0.00,0.00,0.01,-0.08,-0.08
144,3300.00,3300.00,3300.00,-0.2522,0.8564,0.6763,-2.054,-0.151,0.939,13.01,51.07,0.0217,-0.8130,0.5847,0.567,-2.459,0.917,-1.21,-54.31,0.0000,0.0000,0.0000,0.000,0.000,0.000,0.00,0.00,0.00,-0.08,-0.09
169,0.00,3300.00,2447.40,-0.2566,0.8591,0.6785,-1.825,-0.654,1.565,13.00,51.04,0.0217,-0.8152,0.5786,0.873,-2.779,-0.182,-1.28,-54.29,0.0000,0.0000,0.0000,0.000,0.000,0.000,0.00,0.00,-0.01,-0.09,-0.08
183,1735.02,3300.00,3300.00,-0.2549,0.8564,0.6763,-0.649,-0.624,1.397,12.99,51.04,0.0171,-0.8120,0.5840,0.827,-2.840,0.520,-1.31,-54.28,0.0000,0.0000,0.0000,0.000,0.000,0.000,0.00,0.00,-0.02,-0.09,-0.07
197,3300.00,3300.00,3300.00,-0.2590,0.8582,0.6685,-0.634,0.399,0.756,13.01,51.05,0.0188,-0.8108,0.5833,0.690,-3.329,0.826,-1.36,-54.27,0.0000,0.0000,0.0000,0.000,0.000,0.000,0.00,0.00,-0.03,-0.10,-0.07
222,425.49,2769.74,820.37,-0.2600,0.8616,0.6772,1.565,2.445,0.481,13.07,51.11,0.0225,-0.8101,0.5825,-0.379,-4.443,0.872,-1.46,-54.28,0.0000,0.0000,0.0000,0.000,0.000,0.000,0.00,0.00,-0.06,-0.11,-0.05
236,0.00,2347.47,1936.48,-0.2546,0.8608,0.6714,-0.954,2.857,1.122,13.11,51.11,0.0161,-0.8162,0.5786,0.170,-3.878,1.620,-1.50,-54.29,0.0000,0.0000,0.0000,0.000,0.000,0.000,0.00,0.00,-0.09,-0.12,-0.03
250,1237.00,3300.00,3300.00,-0.2537,0.8530,0.6731,0.481,2.231,0.267,13.14,51.13,0.0251,-0.8206,0.5776,0.186,-3.176,0.933,-1.55,-54.29,0.0000,0.0000,0.0000,0.000,0.000,0.000,0.00,0.00,-0.12,-0.14,-0.01
275,3300.00,2822.12,3300.00,-0.2522,0.8557,0.6638,-1.077,4.124,-1.763,13.24,51.13,0.0229,-0.8186,0.5732,-5.921,-4.504,4.551,-1.65,-54.45,0.0000,0.0000,0.0000,0.000,0.000,0.000,0.00,0.00,-0.17,-0.16,0.01
289,1320.00,763.15,0.00,-0.2556,0.8530,0.6709,-0.512,5.437,-1.763,13.32,51.13,0.0134,-0.8230,0.5835,-7.707,-2.031,6.246,-1.66,-54.56,0.0000,0.0000,0.0000,0.000,0.000,0.000,0.00,0.00,-0.22,-0.18,0.04
304,0.00,755.09,0.00,-0.2615,0.8455,0.6863,0.313,5.330,-1.076,13.40,51.13,0.0066,-0.8188,0.5867,-7.585,-1.726,5.177,-1.66,-54.67,0.0000,0.0000,0.0000,0.000,0.000,0.000,0.00,0.00,-0.27,-0.21,0.06
328,3300.00,3300.00,3300.00,-0.2639,0.8545,0.6882,-1.412,5.361,0.191,13.53,51.10,0.0144,-0.8115,0.5845,-9.830,-1.405,6.093,-1.68,-54.89,0.0000,0.0000,0.0000,0.000,0.000,0.000,0.00,0.00,-0.32,-0.24,0.08
342,3300.00,580.22,1864.76,-0.2644,0.8552,0.6851,-0.832,6.369,0.145,13.62,51.09,0.0012,-0.8152,0.5674,-5.631,-5.222,4.414,-1.72,-54.98,0.0000,0.0000,0.0000,0.000,0.000,0.000,0.00,0.00,-0.38,-0.28,0.10
356,1591.58,0.00,0.00,-0.2546,0.8523,0.6909,-5.550,4.659,1.351,13.67,51.01,0.0186,-0.8250,0.5686,-9.295,-4.291,8.658,-1.76,-55.11,0.0000,0.0000,0.0000,0.000,0.000,0.000,0.00,0.00,-0.45,-0.32,0.13
381,3300.00,3300.00,3300.00,-0.2439,0.8511,0.6804,-8.405,2.231,2.114,13.70,50.82,0.0378,-0.8425,0.5774,-2.272,-3.054,5.284,-1.84,-55.18,0.0000,0.0000,0.0000,0.000,0.000,0.000,0.00,0.00,-0.52,-0.36,0.16
395,3300.00,3300.00,3300.00,-0.2480,0.8550,0.6741,-8.817,3.025,1.107,13.73,50.71,0.0476,-0.8323,0.5786,7.361,-3.084,-1.357,-1.90,-55.08,0.0000,0.0000,0.0000,0.000,0.000,0.000,0.00,0.00,-0.59,-0.40,0.19
409,3300.00,12.89,672.09,-0.2478,0.8608,0.6685,-10.512,1.941,0.328,13.74,50.60,0.0530,-0.8201,0.5747,16.705,-0.321,-6.335,-1.93,-54.84,0.0000,0.0000,0.0000,0.000,0.000,0.000,0.00,0.00,-0.65,-0.43,0.22
434,0.00,0.00,0.00,-0.2554,0.8640,0.6492,-11.565,4.063,-2.069,13.83,50.37,0.0181,-0.8142,0.5601,17.835,-2.932,-4.304,-1.98,-54.42,0.0000,0.0000,0.0000,0.000,0.000,0.000,0.00,0.00,-0.72,-0.47,0.25
448,3184.76,1332.89,2965.57,-0.2739,0.8577,0.6609,-7.244,4.475,-1.779,13.90,50.31,0.0195,-0.8020,0.5764,14.247,0.335,-2.686,-1.96,-54.22,0.0000,0.0000,0.0000,0.000,0.000,0.000,0.00,0.00,-0.79,-0.51,0.28
462,3300.00,2395.82,3300.00,-0.2556,0.8481,0.6658,0.160,6.002,-4.282,13.97,50.34,0.0413,-0.7983,0.6296,16.567,5.160,-3.357,-1.90,-53.94,0.0000,0.0000,0.0000,0.000,0.000,0.000,0.00,0.00,-0.86,-0.56,0.30
487,0.00,0.00,0.00,-0.2646,0.8469,0.6682,4.114,13.804,-3.168,14.30,50.47,0.0471,-0.8137,0.6145,28.461,15.587,-6.029,-1.54,-53.24,0.0000,0.0000,0.0000,0.000,0.000,0.000,0.00,0.00,-0.92,-0.62,0.30
501,0.00,0.00,859.85,-0.2739,0.8708,0.6689,6.236,13.697,-1.947,14.48,50.59,0.0061,-0.7842,0.5667,40.537,28.900,-12.060,-1.11,-52.69,0.0000,0.0000,0.0000,0.000,0.000,0.000,0.00,0.00,-0.96,-0.69,0.26
515,2274.14,1735.82,3300.00,-0.2632,0.8613,0.6858,12.923,15.040,-2.786,14.67,50.79,0.0259,-0.7869,0.5901,32.155,18.946,-6.396,-0.86,-52.25,0.0000,0.0000,0.0000,0.000,0.000,0.000,0.00,0.00,-0.99,-0.77,0.21
540,0.00,0.00,0.00,-0.2749,0.8523,0.6665,3.931,17.315,-1.382,15.08,50.91,0.0007,-0.7854,0.5942,22.109,19.740,-7.128,-0.37,-51.74,0.0000,0.0000,0.0000,0.000,0.000,0.000,0.00,0.00,-1.01,-0.88,0.13
554,0.00,0.00,0.00,-0.2935,0.8513,0.6707,1.259,23.315,-1.122,15.40,50.94,-0.0020,-0.8135,0.5730,44.659,28.015,-11.037,0.03,-51.18,0.0000,0.0000,0.0000,0.000,0.000,0.000,0.00,0.00,-1.03,-1.00,0.03
568,0.00,0.00,0.00,-0.2590,0.8352,0.6836,-2.481,21.452,-1.947,15.66,50.91,-0.0020,-0.8301,0.5991,44.827,35.648,-11.312,0.53,-50.61,0.0000,0.0000,0.0000,0.000,0.000,0.000,0.00,0.00,-1.03,-1.13,-0.10
592,3300.00,0.00,101.54,-0.2510,0.8589,0.6995,-10.603,25.376,-2.725,16.21,50.65,0.0144,-0.7905,0.6206,48.506,22.259,-16.289,1.04,-49.48,0.0000,0.0000,0.0000,0.000,0.000,0.000,0.00,0.00,-1.03,-1.28,-0.26
607,0.00,0.00,0.00,-0.2627,0.8655,0.6909,-12.038,24.918,-3.626,16.50,50.50,0.0242,-0.7925,0.6091,46.186,15.984,-15.037,1.21,-48.89,0.0000,0.0000,0.0000,0.000,0.000,0.000,0.00,0.00,-1.04,-1.45,-0.42
621,0.00,0.00,0.00,-0.2800,0.8525,0.7087,-11.809,17.193,-2.359,16.70,50.33,0.0159,-0.7766,0.6274,37.529,12.488,-13.556,1.34,-48.41,0.0000,0.0000,0.0000,0.000,0.000,0.000,0.00,0.00,-1.05,-1.62,-0.57
645,3300.00,0.00,1923.59,-0.2930,0.8484,0.6777,-13.641,7.727,-0.160,16.85,50.02,-0.0007,-0.7810,0.6160,24.522,8.824,-9.556,1.53,-47.89,0.0000,0.0000,0.0000,0.000,0.000,0.000,0.00,0.00,-1.06,-1.79,-0.73
660,3300.00,0.00,0.00,-0.2878,0.8435,0.6458,-10.909,7.681,-0.649,16.92,49.92,-0.0098,-0.7634,0.6111,22.415,7.343,-8.014,1.61,-47.65,0.0000,0.0000,0.0000,0.000,0.000,0.000,0.00,0.00,-1.07,-1.95,-0.88
674,352.16,0.00,0.00,-0.2759,0.8264,0.6675,-13.809,10.201,-0.466,17.02,49.75,-0.0056,-0.7844,0.6338,19.667,8.198,-7.800,1.70,-47.44,0.0000,0.0000,0.0000,0.000,0.000,0.000,0.00,0.00,-1.08,-2.11,-1.03
698,2646.45,2260.44,3300.00,-0.2717,0.8435,0.6531,-16.008,14.307,-0.527,17.31,49.42,0.0049,-0.7944,0.6426,27.835,8.366,-11.357,1.86,-46.85,0.0000,0.0000,0.0000,0.000,0.000,0.000,0.00,0.00,-1.09,-2.27,-1.18
713,3300.00,3300.00,3300.00,-0.2830,0.8293,0.6492,-5.672,11.285,-1.351,17.42,49.39,0.0186,-0.7971,0.6387,41.789,6.534,-15.983,1.89,-46.35,0.0000,0.0000,0.0000,0.000,0.000,0.000,0.00,0.00,-1.11,-2.44,-1.32
737,0.00,0.00,0.00,-0.2979,0.8137,0.7253,-13.901,2.750,2.557,17.44,49.03,0.0042,-0.7573,0.6694,54.048,2.290,-20.838,1.91,-45.10,0.0000,0.0000,0.0000,0.000,0.000,0.000,0.00,0.00,-1.13,-2.59,-1.45
751,0.00,0.00,1447.33,-0.3186,0.8413,0.7224,-16.481,-6.532,4.084,17.32,48.81,0.0129,-0.7461,0.6650,47.651,-1.756,-19.831,1.83,-44.50,0.0000,0.0000,0.0000,0.000,0.000,0.000,0.00,0.00,-1.15,-2.72,-1.57
765,2772.16,3144.47,3300.00,-0.3088,0.8523,0.7253,-16.130,-15.067,6.542,17.07,48.60,0.0283,-0.7417,0.6677,36.873,1.450,-16.976,1.78,-44.06,0.0000,0.0000,0.0000,0.000,0.000,0.000,0.00,0.00,-1.15,-2.83,-1.68
790,0.00,0.00,0.00,-0.2874,0.8457,0.7261,-17.015,-22.715,9.244,16.48,48.21,0.0171,-0.7158,0.6770,9.163,-2.001,-6.686,1.68,-43.89,0.0000,0.0000,0.0000,0.000,0.000,0.000,0.00,0.00,-1.12,-2.89,-1.77
804,0.00,0.00,0.00,-0.2625,0.8621,0.7097,-16.466,-26.135,7.489,16.05,48.03,0.0154,-0.7329,0.6799,-7.723,-6.001,-0.106,1.54,-44.06,0.0000,0.0000,0.0000,0.000,0.000,0.000,0.00,0.00,-1.07,-2.91,-1.84
818,0.00,0.00,0.00,-0.2490,0.8535,0.7026,-17.626,-26.853,7.458,15.60,47.83,0.0271,-0.7520,0.6663,-21.219,-9.161,6.383,1.35,-44.45,0.0000,0.0000,0.0000,0.000,0.000,0.000,0.00,0.00,-1.00,-2.90,-1.90
843,3034.07,0.00,0.00,-0.2522,0.8523,0.7244,-22.435,-35.296,11.962,14.70,47.33,0.0042,-0.7361,0.6614,-41.341,-16.581,19.253,0.92,-45.51,0.0000,0.0000,0.0000,0.000,0.000,0.000,0.00,0.00,-0.90,-2.83,-1.92
857,0.00,0.00,0.00,-0.2646,0.8516,0.7329,-20.909,-38.777,12.588,14.13,47.07,0.0715,-0.7771,0.6633,-62.303,-18.962,28.475,0.56,-46.46,0.0000,0.0000,0.0000,0.000,0.000,0.000,0.00,0.00,-0.80,-2.72,-1.92
871,0.00,0.00,0.00,-0.2561,0.8354,0.7195,-24.619,-42.441,11.870,13.52,46.78,0.0298,-0.7698,0.6555,-58.761,-19.955,28.581,0.24,-47.34,0.0000,0.0000,0.0000,0.000,0.000,0.000,0.00,0.00,-0.69,-2.58,-1.89
896,3300.00,0.00,185.35,-0.2458,0.8350,0.7095,-19.779,-36.685,5.962,12.62,46.36,0.0308,-0.7815,0.6494,-62.608,-19.894,30.307,-0.28,-48.90,0.0000,0.0000,0.0000,0.000,0.000,0.000,0.00,0.00,-0.55,-2.38,-1.83
910,1855.09,0.00,0.00,-0.2419,0.8323,0.7026,-2.252,-26.120,-0.328,12.26,46.40,0.0605,-0.7761,0.6628,-62.990,-17.833,29.452,-0.59,-49.79,0.0000,0.0000,0.0000,0.000,0.000,0.000,0.00,0.00,-0.42,-2.18,-1.75
924,0.00,0.00,0.00,-0.2209,0.8591,0.7002,42.450,11.315,-15.519,12.39,47.08,0.0012,-0.7656,0.6162,-65.234,-22.123,30.688,-0.89,-50.73,0.0000,0.0000,0.0000,0.000,0.000,0.000,0.00,0.00,-0.34,-2.00,-1.66
949,0.00,0.00,0.00,-0.2705,0.8489,0.6416,49.901,27.208,-13.458,13.08,48.39,-0.0137,-0.7778,0.6423,-50.379,-24.718,20.062,-1.45,-51.93,0.0000,0.0000,0.0000,0.000,0.000,0.000,0.00,0.00,-0.34,-1.87,-1.53
963,0.00,0.00,0.00,-0.2639,0.8484,0.6667,61.931,40.811,-13.122,13.66,49.32,0.0042,-0.7871,0.6169,-40.975,-20.917,16.566,-1.71,-52.50,0.0000,0.0000,0.0000,0.000,0.000,0.000,0.00,0.00,-0.40,-1.80,-1.40
977,0.00,0.00,0.00,-0.2498,0.8403,0.6626,43.305,-1.372,3.947,13.63,49.98,-0.0090,-0.8064,0.6289,-32.837,-17.527,12.902,-1.92,-52.95,0.0000,0.0000,0.0000,0.000,0.000,0.000,0.00,0.00,-0.47,-1.73,-1.26
1002,0.00,0.00,0.00,-0.2510,0.7612,0.6892,69.534,-8.685,-8.618,13.43,51.60,0.0315,-0.7864,0.6045,-15.494,-6.306,5.818,-2.06,-53.31,0.0000,0.0000,0.0000,0.000,0.000,0.000,0.00,0.00,-0.54,-1.65,-1.12
1016,0.00,0.00,0.00,-0.2791,0.9136,0.6895,59.748,-26.517,-3.199,13.07,52.45,0.0222,-0.7957,0.6138,-12.074,-3.039,4.291,-2.09,-53.46,0.0000,0.0000,0.0000,0.000,0.000,0.000,0.00,0.00,-0.57,-1.55,-0.98
1030,0.00,0.00,0.00,-0.2561,0.8584,0.6260,-1.580,-7.204,1.748,12.98,52.46,0.0225,-0.7937,0.6150,-7.982,-1.497,3.375,-2.10,-53.55,0.0000,0.0000,0.0000,0.000,0.000,0.000,0.00,0.00,-0.60,-1.46,-0.86
1054,0.00,0.00,0.00,-0.2620,0.8459,0.6763,-3.611,1.346,-0.832,13.02,52.35,0.0259,-0.8120,0.5999,-7.112,-2.993,3.894,-2.15,-53.72,0.0000,0.0000,0.0000,0.000,0.000,0.000,0.00,0.00,-0.63,-1.37,-0.74
1068,0.00,0.00,0.00,-0.2632,0.8638,0.6653,2.236,0.628,-2.282,13.04,52.38,0.0291,-0.8057,0.5964,-0.501,-0.901,1.467,-2.16,-53.72,0.0000,0.0000,0.0000,0.000,0.000,0.000,0.00,0.00,-0.66,-1.29,-0.63
1083,0.00,0.00,0.00,-0.2520,0.8577,0.6709,-2.115,-1.250,-0.038,13.02,52.35,0.0320,-0.8074,0.5938,-2.272,-0.688,2.062,-2.16,-53.75,0.0000,0.0000,0.0000,0.000,0.000,0.000,0.00,0.00,-0.69,-1.21,-0.52
1107,0.00,0.00,0.00,-0.2532,0.8611,0.6643,1.000,1.681,-0.618,13.06,52.37,0.0271,-0.8086,0.5930,-4.196,0.366,1.772,-2.14,-53.85,0.0000,0.0000,0.0000,0.000,0.000,0.000,0.00,0.00,-0.71,-1.14,-0.43
1122,0.00,0.00,0.00,-0.2556,0.8638,0.6765,1.397,0.445,-0.282,13.07,52.38,0.0193,-0.8086,0.5991,-3.387,0.228,1.436,-2.11,-53.89,0.0000,0.0000,0.0000,0.000,0.000,0.000,0.00,0.00,-0.74,-1.08,-0.34
1136,0.00,0.00,0.00,-0.2529,0.8611,0.6758,1.443,-0.181,0.481,13.07,52.39,0.0107,-0.8074,0.6042,-2.654,-1.680,1.070,-2.11,-53.91,0.0000,0.0000,0.0000,0.000,0.000,0.000,0.00,0.00,-0.76,-1.02,-0.26
1160,244.98,0.00,322.34,-0.2551,0.8618,0.6790,2.404,-1.173,0.756,13.04,52.44,0.0178,-0.8086,0.5913,-0.288,-2.459,0.001,-2.14,-53.92,0.0000,0.0000,0.0000,0.000,0.000,0.000,0.00,0.00,-0.78,-0.96,-0.18
1174,0.00,0.00,0.00,-0.2515,0.8596,0.6709,1.076,-0.914,2.145,13.03,52.44,0.0171,-0.8069,0.5977,-0.135,-2.871,0.215,-2.16,-53.91,0.0000,0.0000,0.0000,0.000,0.000,0.000,0.00,0.00,-0.80,-0.91,-0.11
1189,0.00,0.00,0.00,-0.2600,0.8599,0.6836,1.595,-0.044,1.305,13.03,52.45,0.0149,-0.8040,0.5920,0.537,-3.420,-0.793,-2.18,-53.90,0.0000,0.0000,0.0000,0.000,0.000,0.000,0.00,0.00,-0.82,-0.86,-0.04
1213,1488.42,3300.00,3300.00,-0.2571,0.8569,0.6770,-0.649,-0.960,1.947,13.01,52.42,0.0100,-0.8027,0.5842,0.598,-3.039,-0.380,-2.22,-53.88,0.0000,0.0000,0.0000,0.000,0.000,0.000,0.00,0.00,-0.84,-0.81,0.03
1227,3203.30,3300.00,3300.00,-0.2485,0.8508,0.6782,-1.550,-0.471,1.733,13.00,52.37,0.0088,-0.8113,0.5808,-0.944,-2.733,-0.289,-2.23,-53.91,0.0000,0.0000,0.0000,0.000,0.000,0.000,0.00,0.00,-0.86,-0.77,0.09
1241,193.41,3300.00,3300.00,-0.2524,0.8494,0.6758,0.007,0.765,1.229,13.02,52.36,0.0161,-0.8130,0.5762,-1.036,-2.504,0.047,-2.24,-53.94,0.0000,0.0000,0.0000,0.000,0.000,0.000,0.00,0.00,-0.88,-0.73,0.15
1266,233.70,3300.00,3300.00,-0.2534,0.8501,0.6787,0.954,0.857,0.756,13.04,52.36,-0.0029,-0.8037,0.5918,0.201,-3.084,0.810,-2.26,-53.93,0.0000,0.0000,0.0000,0.000,0.000,0.000,0.00,0.00,-0.90,-0.69,0.20
1280,3300.00,3300.00,3300.00,-0.2625,0.8503,0.6819,1.244,1.849,0.664,13.07,52.36,0.0015,-0.8157,0.5825,1.422,-2.520,0.459,-2.25,-53.92,0.0000,0.0000,0.0000,0.000,0.000,0.000,0.00,0.00,-0.92,-0.66,0.26
1295,3300.00,3300.00,3300.00,-0.2693,0.8455,0.6851,1.397,1.941,1.076,13.12,52.35,-0.0022,-0.8093,0.5967,1.636,-3.588,0.688,-2.26,-53.89,0.0000,0.0000,0.0000,0.000,0.000,0.000,0.00,0.00,-0.94,-0.64,0.31
1319,0.00,3300.00,3300.00,-0.2676,0.8459,0.6831,1.977,2.598,1.275,13.20,52.37,-0.0061,-0.8118,0.5974,4.369,-4.703,0.001,-2.32,-53.78,0.0000,0.0000,0.0000,0.000,0.000,0.000,0.00,0.00,-0.97,-0.62,0.35
1333,1839.78,3300.00,3300.00,-0.2625,0.8521,0.6714,3.580,3.651,1.214,13.25,52.41,-0.0015,-0.8108,0.5989,5.300,-6.123,-0.075,-2.35,-53.70,0.0000,0.0000,0.0000,0.000,0.000,0.000,0.00,0.00,-1.01,-0.60,0.40
1348,3300.00,3300.00,3300.00,-0.2632,0.8552,0.6709,3.351,4.292,1.855,13.32,52.44,0.0002,-0.8027,0.5969,4.567,-6.092,0.062,-2.39,-53.63,0.0000,0.0000,0.0000,0.000,0.000,0.000,0.00,0.00,-1.05,-0.60,0.45
1372,51.58,3300.00,3300.00,-0.2583,0.8628,0.6611,4.511,5.666,1.687,13.46,52.55,0.0222,-0.8035,0.5913,3.773,-6.413,0.933,-2.52,-53.54,0.0000,0.0000,0.0000,0.000,0.000,0.000,0.00,0.00,-1.10,-0.60,0.51
1386,0.00,3300.00,3300.00,-0.2571,0.8657,0.6697,4.038,5.300,1.901,13.53,52.61,0.0234,-0.8098,0.5945,3.483,-6.581,1.162,-2.59,-53.49,0.0000,0.0000,0.0000,0.000,0.000,0.000,0.00,0.00,-1.17,-0.61,0.56
1401,438.39,3300.00,3300.00,-0.2551,0.8572,0.6592,5.030,5.926,1.656,13.61,52.67,0.0288,-0.8037,0.5886,2.796,-6.001,1.192,-2.66,-53.46,0.0000,0.0000,0.0000,0.000,0.000,0.000,0.00,0.00,-1.23,-0.62,0.62
1425,2565.05,3300.00,3300.00,-0.2563,0.8657,0.6670,4.618,5.254,0.878,13.72,52.78,0.0352,-0.8044,0.5906,3.254,-5.649,0.673,-2.78,-53.39,0.0000,0.0000,0.0000,0.000,0.000,0.000,0.00,0.00,-1.31,-0.64,0.68
1439,0.00,1025.05,0.00,-0.2534,0.8711,0.6619,3.870,3.849,1.580,13.76,52.83,0.0388,-0.8040,0.5947,2.781,-5.191,0.520,-2.84,-53.35,0.0000,0.0000,0.0000,0.000,0.000,0.000,0.00,0.00,-1.40,-0.66,0.74
1454,0.00,0.00,0.00,-0.2476,0.8718,0.6541,3.488,3.437,1.687,13.79,52.89,0.0388,-0.8037,0.6035,2.812,-5.756,-0.396,-2.91,-53.31,0.0000,0.0000,0.0000,0.000,0.000,0.000,0.00,0.00,-1.48,-0.68,0.80
1478,3300.00,3300.00,3300.00,-0.2434,0.8735,0.6536,7.214,3.804,1.107,13.86,53.06,0.0464,-0.8037,0.5967,2.048,-6.107,-0.716,-3.05,-53.26,0.0000,0.0000,0.0000,0.000,0.000,0.000,0.00,0.00,-1.57,-0.70,0.86
1492,2215.31,3300.00,1912.31,-0.2498,0.8716,0.6531,6.435,3.620,1.397,13.89,53.16,0.0503,-0.8040,0.6030,2.140,-5.649,-1.525,-3.13,-53.23,0.0000,0.0000,0.0000,0.000,0.000,0.000,0.00,0.00,-1.66,-0.73,0.93
1506,0.00,3300.00,1100.00,-0.2495,0.8728,0.6511,5.580,3.788,0.893,13.92,53.24,0.0432,-0.8030,0.5996,2.674,-5.665,-1.785,-3.19,-53.19,0.0000,0.0000,0.0000,0.000,0.000,0.000,0.00,0.00,-1.75,-0.76,1.00
1531,3300.00,3300.00,3300.00,-0.2502,0.8782,0.6401,8.084,3.819,0.130,14.00,53.44,0.0491,-0.8032,0.6001,2.461,-6.230,-1.983,-3.33,-53.13,0.0000,0.0000,0.0000,0.000,0.000,0.000,0.00,0.00,-1.85,-0.78,1.07
1545,3300.00,3300.00,3300.00,-0.2505,0.8853,0.6479,8.725,3.529,0.343,14.02,53.57,0.0476,-0.8015,0.6111,3.270,-6.092,-2.777,-3.41,-53.08,0.0000,0.0000,0.0000,0.000,0.000,0.000,0.00,0.00,-1.96,-0.81,1.14
1560,3300.00,3300.00,3300.00,-0.2454,0.8755,0.6499,6.527,2.109,1.412,14.03,53.66,0.0535,-0.7986,0.6030,3.575,-6.520,-2.777,-3.49,-53.02,0.0000,0.0000,0.0000,0.000,0.000,0.000,0.00,0.00,-2.06,-0.84,1.22
1584,3300.00,3300.00,3300.00,-0.2578,0.8765,0.6455,2.099,0.704,1.229,14.03,53.71,0.0483,-0.7930,0.6047,2.491,-4.596,-0.899,-3.59,-52.96,0.0000,0.0000,0.0000,0.000,0.000,0.000,0.00,0.00,-2.16,-0.87,1.29
1598,3300.00,3300.00,3300.00,-0.2729,0.8738,0.6509,3.122,0.964,1.427,14.04,53.75,0.0303,-0.7915,0.6113,1.819,-3.741,-1.052,-3.60,-52.92,0.0000,0.0000,0.0000,0.000,0.000,0.000,0.00,0.00,-2.25,-0.89,1.36
1613,3300.00,3300.00,3300.00,-0.2715,0.8628,0.6453,3.748,0.445,1.061,14.05,53.79,0.0269,-0.7917,0.6116,2.796,-3.344,-0.747,-3.61,-52.87,0.0000,0.0000,0.0000,0.000,0.000,0.000,0.00,0.00,-2.34,-0.91,1.43
1637,3300.00,3300.00,3300.00,-0.2822,0.8584,0.6411,4.298,2.384,-0.099,14.12,53.88,0.0259,-0.7876,0.6177,1.865,-2.275,-0.167,-3.62,-52.80,0.0000,0.0000,0.0000,0.000,0.000,0.000,0.00,0.00,-2.43,-0.94,1.49
1651,3300.00,3300.00,3300.00,-0.2769,0.8613,0.6375,3.137,2.292,-0.511,14.16,53.92,0.0322,-0.7822,0.6143,-0.868,-1.313,1.284,-3.60,-52.80,0.0000,0.0000,0.0000,0.000,0.000,0.000,0.00,0.00,-2.51,-0.97,1.55
1665,3300.00,3300.00,3300.00,-0.2842,0.8694,0.6472,2.114,1.681,-1.443,14.20,53.93,0.0210,-0.7827,0.6152,-1.723,-0.138,0.841,-3.56,-52.80,0.0000,0.0000,0.0000,0.000,0.000,0.000,0.00,0.00,-2.59,-1.00,1.60
1690,3300.00,3300.00,3300.00,-0.2866,0.8726,0.6519,0.023,1.712,-0.618,14.25,53.92,0.0164,-0.7864,0.6145,-3.646,0.351,2.291,-3.50,-52.87,0.0000,0.0000,0.0000,0.000,0.000,0.000,0.00,0.00,-2.66,-1.03,1.64
1704,3300.00,3300.00,3300.00,-0.2729,0.8701,0.6482,-0.252,1.239,-0.756,14.26,53.91,0.0315,-0.7876,0.6079,-5.570,1.022,2.322,-3.45,-52.94,0.0000,0.0000,0.0000,0.000,0.000,0.000,0.00,0.00,-2.73,-1.05,1.67
1719,3300.00,3300.00,3300.00,-0.2676,0.8831,0.6418,-0.344,1.712,-0.878,14.28,53.90,0.0344,-0.7896,0.5979,-8.456,2.198,2.917,-3.39,-53.06,0.0000,0.0000,0.0000,0.000,0.000,0.000,0.00,0.00,-2.78,-1.08,1.70
1743,3300.00,3300.00,3300.00,-0.2451,0.8767,0.6606,-1.596,0.033,-0.359,14.24,53.85,0.0464,-0.8123,0.5947,-9.188,3.358,3.360,-3.29,-53.29,0.0000,0.0000,0.0000,0.000,0.000,0.000,0.00,0.00,-2.83,-1.11,1.72
1757,3300.00,3300.00,3300.00,-0.2380,0.8691,0.6580,2.847,-1.525,-0.649,14.18,53.87,0.0464,-0.8118,0.5896,-8.028,2.641,2.490,-3.24,-53.42,0.0000,0.0000,0.0000,0.000,0.000,0.000,0.00,0.00,-2.86,-1.12,1.74
1772,3300.00,3300.00,3300.00,-0.2395,0.8665,0.6433,4.236,5.437,-1.321,14.23,53.92,0.0518,-0.8103,0.5874,-8.089,2.549,3.070,-3.20,-53.55,0.0000,0.0000,0.0000,0.000,0.000,0.000,0.00,0.00,-2.89,-1.14,1.75
1796,3300.00,3300.00,3300.00,-0.2595,0.8752,0.6379,3.901,4.414,-0.847,14.32,54.01,0.0388,-0.8174,0.6013,-6.623,2.610,0.734,-3.12,-53.71,0.0000,0.0000,0.0000,0.000,0.000,0.000,0.00,0.00,-2.92,-1.17,1.75
1811,3300.00,3300.00,3300.00,-0.2627,0.8691,0.6560,5.611,2.399,-1.397,14.34,54.07,0.0278,-0.8120,0.6001,-6.074,1.328,-1.067,-3.07,-53.79,0.0000,0.0000,0.0000,0.000,0.000,0.000,0.00,0.00,-2.94,-1.19,1.75
1825,3300.00,3300.00,3300.00,-0.2659,0.8752,0.6084,5.397,1.330,0.649,14.35,54.17,0.0244,-0.8042,0.5996,-5.631,0.854,-0.899,-3.02,-53.86,0.0000,0.0000,0.0000,0.000,0.000,0.000,0.00,0.00,-2.97,-1.21,1.75
1850,3300.00,3300.00,3300.00,-0.2705,0.8784,0.6584,2.435,-0.410,2.466,14.33,54.20,0.0308,-0.7959,0.5994,-6.165,-0.199,-0.808,-3.00,-53.99,0.0000,0.0000,0.0000,0.000,0.000,0.000,0.00,0.00,-2.98,-1.23,1.75
1864,3300.00,3300.00,3300.00,-0.2725,0.8806,0.6582,2.465,-3.006,3.870,14.28,54.22,0.0237,-0.7998,0.5979,-7.295,0.183,-0.441,-2.97,-54.08,0.0000,0.0000,0.0000,0.000,0.000,0.000,0.00,0.00,-2.99,-1.25,1.74
1878,3300.00,3300.00,3300.00,-0.2715,0.8691,0.6577,2.191,-4.380,3.489,14.21,54.22,0.0225,-0.8086,0.5872,-8.043,0.793,-0.655,-2.92,-54.19,0.0000,0.0000,0.0000,0.000,0.000,0.000,0.00,0.00,-2.99,-1.26,1.73
1903,3300.00,3300.00,3300.00,-0.2573,0.8491,0.6487,2.465,-4.395,1.260,14.09,54.25,0.0205,-0.8184,0.5847,-6.883,1.755,-1.006,-2.85,-54.36,0.0000,0.0000,0.0000,0.000,0.000,0.000,0.00,0.00,-2.98,-1.26,1.72
1917,3300.00,3300.00,3300.00,-0.2527,0.8503,0.6455,1.672,-3.677,0.298,14.02,54.25,0.0173,-0.8157,0.5745,-5.753,1.816,-0.533,-2.78,-54.45,0.0000,0.0000,0.0000,0.000,0.000,0.000,0.00,0.00,-2.96,-1.26,1.70
1931,3300.00,3300.00,3300.00,-0.2507,0.8511,0.6570,1.397,-1.448,-0.649,13.99,54.23,0.0120,-0.8171,0.5837,-3.081,1.755,-0.365,-2.72,-54.49,0.0000,0.0000,0.0000,0.000,0.000,0.000,0.00,0.00,-2.93,-1.25,1.68
1956,3300.00,3300.00,3300.00,-0.2561,0.8647,0.6565,2.756,0.750,-2.130,13.99,54.26,0.0159,-0.8191,0.5906,-0.135,1.099,-0.304,-2.65,-54.49,0.0000,0.0000,0.0000,0.000,0.000,0.000,0.00,0.00,-2.90,-1.24,1.66
1970,3300.00,3300.00,3300.00,-0.2588,0.8738,0.6467,2.114,0.704,-1.305,13.99,54.28,0.0146,-0.8120,0.5889,0.812,-0.138,-0.212,-2.62,-54.47,0.0000,0.0000,0.0000,0.000,0.000,0.000,0.00,0.00,-2.87,-1.24,1.64
1984,3300.00,3300.00,3300.00,-0.2661,0.8750,0.6416,2.801,1.056,-0.573,14.00,54.31,0.0210,-0.8103,0.5891,0.506,0.824,-0.289,-2.58,-54.45,0.0000,0.0000,0.0000,0.000,0.000,0.000,0.00,0.00,-2.84,-1.23,1.61
2009,3300.00,3300.00,3300.00,-0.2559,0.8748,0.6462,2.175,1.239,-0.634,14.01,54.34,0.0325,-0.8113,0.5854,-0.364,-0.489,-0.426,-2.58,-54.46,0.0000,0.0000,0.0000,0.000,0.000,0.000,0.00,0.00,-2.82,-1.23,1.59
2023,3300.00,3300.00,3300.00,-0.2480,0.8813,0.6492,-0.069,-0.853,0.343,13.98,54.33,0.0410,-0.8108,0.5850,-1.158,-0.474,-1.312,-2.58,-54.47,0.0000,0.0000,0.0000,0.000,0.000,0.000,0.00,0.00,-2.79,-1.22,1.56
2037,3300.00,3300.00,3300.00,-0.2522,0.8774,0.6489,0.023,-2.349,1.092,13.92,54.31,0.0364,-0.8154,0.5930,-1.677,-0.825,-0.808,-2.58,-54.48,0.0000,0.0000,0.0000,0.000,0.000,0.000,0.00,0.00,-2.76,-1.22,1.54
2062,3300.00,3300.00,3300.00,-0.2498,0.8733,0.6306,3.672,1.636,1.382,13.95,54.40,0.0322,-0.8113,0.5835,-2.761,-1.451,-0.044,-2.60,-54.54,0.0000,0.0000,0.0000,0.000,0.000,0.000,0.00,0.00,-2.74,-1.21,1.53
2076,3300.00,3300.00,3300.00,-0.2573,0.8704,0.6411,4.236,3.926,0.038,13.99,54.44,0.0229,-0.8135,0.5867,-2.303,-2.230,-0.716,-2.61,-54.57,0.0000,0.0000,0.0000,0.000,0.000,0.000,0.00,0.00,-2.72,-1.21,1.51
2090,3300.00,3300.00,3300.00,-0.2708,0.8733,0.6453,4.694,3.773,0.038,14.04,54.49,0.0247,-0.8074,0.6008,-1.494,-3.008,-0.136,-2.62,-54.57,0.0000,0.0000,0.0000,0.000,0.000,0.000,0.00,0.00,-2.70,-1.21,1.50
2115,3300.00,3300.00,3300.00,-0.2700,0.8811,0.6423,1.458,1.269,1.672,14.07,54.51,0.0168,-0.8032,0.5989,-1.906,-3.359,-0.991,-2.67,-54.59,0.0000,0.0000,0.0000,0.000,0.000,0.000,0.00,0.00,-2.70,-1.21,1.49
2129,3300.00,3300.00,3300.00,-0.2737,0.8748,0.6482,1.641,0.231,2.710,14.08,54.51,0.0146,-0.8074,0.5923,-2.013,-3.894,-0.670,-2.69,-54.60,0.0000,0.0000,0.0000,0.000,0.000,0.000,0.00,0.00,-2.69,-1.21,1.48
2144,3300.00,3300.00,3300.00,-0.2634,0.8674,0.6345,3.794,1.193,2.084,14.09,54.55,0.0205,-0.8088,0.5884,-1.997,-3.237,0.902,-2.70,-54.61,0.0000,0.0000,0.0000,0.000,0.000,0.000,0.00,0.00,-2.69,-1.21,1.48
2168,3300.00,3300.00,3300.00,-0.2629,0.8672,0.6414,2.878,2.659,0.649,14.14,54.60,0.0244,-0.8103,0.5857,0.277,-2.947,0.597,-2.75,-54.60,0.0000,0.0000,0.0000,0.000,0.000,0.000,0.00,0.00,-2.70,-1.22,1.47
2182,3300.00,3300.00,3300.00,-0.2703,0.8652,0.6521,2.954,2.781,0.634,14.18,54.61,0.0220,-0.8137,0.5862,0.277,-2.459,-0.243,-2.75,-54.59,0.0000,0.0000,0.0000,0.000,0.000,0.000,0.00,0.00,-2.70,-1.23,1.47
2197,3300.00,3300.00,3300.00,-0.2678,0.8757,0.6448,3.183,0.903,0.328,14.18,54.64,0.0269,-0.8096,0.5886,0.293,-2.214,0.032,-2.76,-54.57,0.0000,0.0000,0.0000,0.000,0.000,0.000,0.00,0.00,-2.71,-1.24,1.47
2221,3300.00,489.16,1104.84,-0.2634,0.8699,0.6350,4.282,0.430,0.389,14.19,54.72,0.0244,-0.8154,0.5862,-0.883,-3.176,-0.823,-2.81,-54.58,0.0000,0.0000,0.0000,0.000,0.000,0.000,0.00,0.00,-2.72,-1.25,1.47
2235,3300.00,3300.00,3300.00,-0.2617,0.8662,0.6362,7.504,3.086,-0.740,14.22,54.81,0.0269,-0.8154,0.5872,-0.730,-3.298,-0.838,-2.83,-54.59,0.0000,0.0000,0.0000,0.000,0.000,0.000,0.00,0.00,-2.74,-1.26,1.48
2250,3300.00,3300.00,3300.00,-0.2539,0.8643,0.6353,5.962,3.666,-0.878,14.25,54.87,0.0225,-0.7949,0.6353,0.262,-4.520,-1.892,-2.86,-54.52,0.0000,0.0000,0.0000,0.000,0.000,0.000,0.00,0.00,-2.75,-1.27,1.48
2274,3300.00,3300.00,3300.00,-0.2646,0.8787,0.6392,6.878,3.819,0.343,14.33,55.02,0.0210,-0.8074,0.5876,-1.280,-2.565,-0.762,-2.89,-54.54,0.0000,0.0000,0.0000,0.000,0.000,0.000,0.00,0.00,-2.78,-1.29,1.49
2288,3300.00,3300.00,3300.00,-0.2739,0.8845,0.6406,6.114,3.361,0.160,14.37,55.08,0.0256,-0.8035,0.5906,-2.165,-2.688,-0.579,-2.90,-54.55,0.0000,0.0000,0.0000,0.000,0.000,0.000,0.00,0.00,-2.80,-1.30,1.50
2303,3300.00,3300.00,3300.00,-0.2659,0.8845,0.6401,3.733,2.140,1.168,14.39,55.12,0.0295,-0.8110,0.5889,-2.929,-2.733,-0.564,-2.91,-54.58,0.0000,0.0000,0.0000,0.000,0.000,0.000,0.00,0.00,-2.83,-1.32,1.51
2327,3300.00,3300.00,3300.00,-0.2639,0.8862,0.6289,4.007,1.483,1.763,14.41,55.20,0.0386,-0.8018,0.5933,-2.379,-3.161,-0.365,-2.98,-54.62,0.0000,0.0000,0.0000,0.000,0.000,0.000,0.00,0.00,-2.86,-1.34,1.52
2342,3300.00,3300.00,3300.00,-0.2698,0.8870,0.6116,5.733,3.254,1.641,14.45,55.29,0.0356,-0.8032,0.5964,-3.204,-2.688,-0.564,-2.99,-54.64,0.0000,0.0000,0.0000,0.000,0.000,0.000,0.00,0.00,-2.89,-1.36,1.53
2356,3300.00,3300.00,3300.00,-0.2776,0.8784,0.6108,7.519,6.659,0.313,14.54,55.39,0.0388,-0.7981,0.5959,-5.417,-1.390,-0.289,-3.00,-54.69,0.0000,0.0000,0.0000,0.000,0.000,0.000,0.00,0.00,-2.93,-1.39,1.54
2380,3300.00,3300.00,3300.00,-0.2910,0.8799,0.6152,8.801,6.720,-1.000,14.72,55.59,0.0308,-0.8037,0.6062,-8.791,0.793,-0.884,-2.95,-54.86,0.0000,0.0000,0.0000,0.000,0.000,0.000,0.00,0.00,-2.97,-1.42,1.55
2395,3300.00,3300.00,3300.00,-0.2939,0.8818,0.6182,9.351,6.231,-2.740,14.82,55.71,0.0339,-0.7993,0.6165,-7.906,2.122,-2.151,-2.90,-54.92,0.0000,0.0000,0.0000,0.000,0.000,0.000,0.00,0.00,-3.01,-1.46,1.55
2409,3300.00,3300.00,3300.00,-0.3088,0.8845,0.6240,8.939,5.208,-3.473,14.91,55.82,0.0300,-0.7957,0.6240,-7.875,2.900,-3.999,-2.84,-54.97,0.0000,0.0000,0.0000,0.000,0.000,0.000,0.00,0.00,-3.06,-1.51,1.55
2433,3300.00,3300.00,3300.00,-0.2881,0.8845,0.6375,6.847,-2.044,-3.611,14.86,55.95,0.0310,-0.8110,0.5901,-7.952,3.633,-4.747,-2.73,-55.14,0.0000,0.0000,0.0000,0.000,0.000,0.000,0.00,0.00,-3.08,-1.54,1.54
2448,3300.00,3300.00,3300.00,-0.2681,0.9065,0.6326,4.099,-3.601,-0.237,14.79,55.99,0.0247,-0.8091,0.5857,-8.654,3.725,-4.670,-2.65,-55.24,0.0000,0.0000,0.0000,0.000,0.000,0.000,0.00,0.00,-3.10,-1.57,1.53
2462,3300.00,3300.00,3300.00,-0.2695,0.9041,0.6201,5.107,-2.761,2.603,14.73,56.06,0.0161,-0.8201,0.5781,-9.738,2.946,-4.655,-2.58,-55.37,0.0000,0.0000,0.0000,0.000,0.000,0.000,0.00,0.00,-3.11,-1.59,1.51
2486,0.00,0.00,0.00,-0.2712,0.8726,0.6560,7.824,-1.677,5.214,14.67,56.18,0.0076,-0.8401,0.5779,-11.631,0.793,-6.151,-2.51,-55.65,0.0000,0.0000,0.0000,0.000,0.000,0.000,0.00,0.00,-3.10,-1.61,1.49
2501,3300.00,1885.71,2989.74,-0.2793,0.8706,0.6519,8.588,-1.708,5.687,14.64,56.24,-0.0051,-0.8379,0.5786,-12.165,0.076,-7.922,-2.46,-55.82,0.0000,0.0000,0.0000,0.000,0.000,0.000,0.00,0.00,-3.09,-1.63,1.47
2515,3300.00,3300.00,3300.00,-0.2852,0.8662,0.6543,8.160,-2.670,6.450,14.61,56.29,-0.0127,-0.8342,0.5757,-12.288,-0.871,-9.388,-2.41,-55.98,0.0000,0.0000,0.0000,0.000,0.000,0.000,0.00,0.00,-3.08,-1.64,1.44
2540,1934.87,0.00,53.99,-0.3069,0.8574,0.6545,12.206,0.964,9.412,14.66,56.52,-0.0547,-0.8179,0.5879,-13.585,-3.359,-10.411,-2.38,-56.28,0.0000,0.0000,0.0000,0.000,0.000,0.000,0.00,0.00,-3.07,-1.65,1.42
2554,0.00,0.00,0.00,-0.3164,0.8577,0.6604,14.527,4.460,12.069,14.75,56.64,-0.0640,-0.8257,0.5908,-13.005,-6.749,-10.945,-2.35,-56.43,0.0000,0.0000,0.0000,0.000,0.000,0.000,0.00,0.00,-3.06,-1.67,1.39
2568,0.00,0.00,0.00,-0.3113,0.8577,0.6499,18.481,7.483,13.229,14.88,56.82,-0.0562,-0.8303,0.5820,-11.921,-8.962,-11.785,-2.37,-56.56,0.0000,0.0000,0.0000,0.000,0.000,0.000,0.00,0.00,-3.06,-1.70,1.37
2593,3300.00,1340.15,2694.80,-0.3040,0.8770,0.6445,23.870,11.452,16.679,15.17,57.33,-0.0234,-0.8308,0.5872,-12.501,-13.649,-14.044,-2.62,-56.83,0.0000,0.0000,0.0000,0.000,0.000,0.000,0.00,0.00,-3.11,-1.74,1.36
2607,101.54,0.00,0.00,-0.2964,0.8792,0.6370,22.130,11.788,19.901,15.34,57.57,0.0002,-0.8298,0.5835,-12.303,-15.069,-16.136,-2.78,-56.96,0.0000,0.0000,0.0000,0.000,0.000,0.000,0.00,0.00,-3.17,-1.80,1.37
2632,3300.00,3300.00,3300.00,-0.2969,0.8909,0.6208,21.137,12.353,22.969,15.63,58.03,0.0117,-0.8240,0.5803,-15.891,-18.062,-16.732,-3.17,-57.30,0.0000,0.0000,0.0000,0.000,0.000,0.000,0.00,0.00,-3.27,-1.87,1.41
2646,3300.00,3300.00,3300.00,-0.2856,0.8889,0.6289,18.649,8.124,23.855,15.73,58.22,0.0254,-0.8250,0.5798,-14.059,-17.833,-17.968,-3.38,-57.45,0.0000,0.0000,0.0000,0.000,0.000,0.000,0.00,0.00,-3.39,-1.94,1.45
2670,0.00,0.00,0.00,-0.2644,0.8892,0.6033,23.381,1.880,24.756,15.73,58.74,0.0442,-0.8467,0.5671,-12.028,-18.016,-21.220,-3.80,-57.71,0.0000,0.0000,0.0000,0.000,0.000,0.000,0.00,0.00,-3.53,-2.01,1.53
2685,0.00,0.00,0.00,-0.2632,0.9011,0.6060,31.412,0.155,24.267,15.69,59.12,0.0586,-0.8389,0.5576,-9.936,-19.268,-24.823,-4.06,-57.82,0.0000,0.0000,0.0000,0.000,0.000,0.000,0.00,0.00,-3.68,-2.07,1.61
2699,3300.00,2702.86,3300.00,-0.2520,0.9268,0.5903,37.534,-0.074,24.863,15.64,59.61,0.0627,-0.8359,0.5732,-8.807,-18.459,-26.747,-4.30,-57.90,0.0000,0.0000,0.0000,0.000,0.000,0.000,0.00,0.00,-3.83,-2.12,1.71
2723,428.72,0.00,0.00,-0.2329,0.9395,0.5867,37.733,-2.364,28.863,15.51,60.49,0.0845,-0.8315,0.5693,-12.410,-21.787,-27.419,-4.84,-58.15,0.0000,0.0000,0.0000,0.000,0.000,0.000,0.00,0.00,-4.00,-2.16,1.84
2737,0.00,0.00,0.00,-0.2375,0.9346,0.5630,33.687,-7.647,30.527,15.34,60.92,0.1128,-0.8264,0.5793,-17.524,-24.611,-26.472,-5.21,-58.33,0.0000,0.0000,0.0000,0.000,0.000,0.000,0.00,0.00,-4.16,-2.18,1.98
2752,0.00,0.00,0.00,-0.2380,0.9512,0.5303,31.168,-11.693,31.458,15.11,61.36,0.1287,-0.8169,0.5864,-17.143,-23.497,-26.564,-5.58,-58.49,0.0000,0.0000,0.0000,0.000,0.000,0.000,0.00,0.00,-4.33,-2.19,2.14
2776,3300.00,1086.30,3300.00,-0.2197,0.9463,0.5007,36.404,-7.952,33.015,14.85,62.25,0.1245,-0.8101,0.5840,-25.723,-27.649,-28.167,-6.27,-59.02,0.0000,0.0000,0.0000,0.000,0.000,0.000,0.00,0.00,-4.52,-2.18,2.34
2790,472.23,0.00,0.00,-0.2297,0.9709,0.5144,40.633,-7.418,34.527,14.69,62.81,0.1379,-0.8135,0.5652,-23.341,-26.443,-30.060,-6.67,-59.27,0.0000,0.0000,0.0000,0.000,0.000,0.000,0.00,0.00,-4.71,-2.16,2.55
2815,3300.00,1849.45,3300.00,-0.1965,0.9907,0.4863,18.527,-17.204,41.321,14.18,63.27,0.1658,-0.8127,0.5645,-25.524,-23.375,-32.273,-7.29,-59.80,0.0000,0.0000,0.0000,0.000,0.000,0.000,0.00,0.00,-4.89,-2.10,2.79
2829,3300.00,3300.00,3300.00,-0.1975,0.9895,0.5027,15.687,-17.952,42.435,13.85,63.49,0.1707,-0.8201,0.5435,-31.768,-21.680,-31.739,-7.64,-60.18,0.0000,0.0000,0.0000,0.000,0.000,0.000,0.00,0.00,-5.07,-2.03,3.04
2854,0.00,0.00,0.00,-0.1609,0.9802,0.5208,13.565,-19.891,45.061,13.26,63.79,0.1677,-0.8452,0.5259,-38.135,-20.581,-29.678,-8.18,-61.06,0.0000,0.0000,0.0000,0.000,0.000,0.000,0.00,0.00,-5.22,-1.91,3.31
2868,3300.00,1472.31,2379.71,-0.1536,0.9749,0.5405,14.465,-21.464,47.153,12.85,63.93,0.1482,-0.8682,0.5115,-42.242,-22.092,-29.022,-8.49,-61.61,0.0000,0.0000,0.0000,0.000,0.000,0.000,0.00,0.00,-5.36,-1.78,3.58
2892,3300.00,3300.00,3300.00,-0.1323,0.9348,0.5901,14.145,-23.998,53.550,12.15,64.15,0.1282,-0.9001,0.4895,-40.165,-28.230,-32.686,-9.14,-62.57,0.0000,0.0000,0.0000,0.000,0.000,0.000,0.00,0.00,-5.49,-1.61,3.88
2907,3300.00,3300.00,3300.00,-0.1289,0.9282,0.5664,18.450,-23.326,55.321,11.72,64.29,0.1338,-0.9075,0.4795,-38.593,-30.764,-36.762,-9.54,-63.10,0.0000,0.0000,0.0000,0.000,0.000,0.000,0.00,0.00,-5.60,-1.42,4.18
2931,3300.00,3300.00,3300.00,-0.1128,0.9363,0.5608,27.855,-17.525,57.885,11.18,64.86,0.1575,-0.8958,0.4749,-36.822,-36.611,-41.724,-10.40,-63.97,0.0000,0.0000,0.0000,0.000,0.000,0.000,0.00,0.00,-5.73,-1.21,4.53
2945,3300.00,3300.00,3300.00,-0.0957,0.9438,0.5488,27.931,-15.250,58.801,10.85,65.15,0.1733,-0.9021,0.4641,-34.043,-37.527,-43.251,-10.91,-64.42,0.0000,0.0000,0.0000,0.000,0.000,0.000,0.00,0.00,-5.87,-0.98,4.88
2970,3300.00,3300.00,3300.00,-0.0964,0.9585,0.5481,27.534,-19.952,60.191,10.25,65.71,0.1890,-0.8806,0.4614,-33.066,-38.001,-45.586,-11.82,-65.17,0.0000,0.0000,0.0000,0.000,0.000,0.000,0.00,0.00,-6.01,-0.73,5.28
2984,3300.00,3300.00,3300.00,-0.1011,0.9697,0.5371,29.672,-20.151,59.183,9.87,66.03,0.1980,-0.8738,0.4590,-32.501,-36.489,-45.449,-12.32,-65.57,0.0000,0.0000,0.0000,0.000,0.000,0.000,0.00,0.00,-6.15,-0.48,5.68
3009,3300.00,3300.00,3300.00,-0.0979,0.9551,0.5322,31.198,-22.563,58.481,9.23,66.68,0.1968,-0.8625,0.4612,-34.837,-35.436,-44.212,-13.16,-66.33,0.0000,0.0000,0.0000,0.000,0.000,0.000,0.00,0.00,-6.30,-0.19,6.11
3023,3300.00,915.46,2324.91,-0.1042,0.9695,0.5283,28.893,-26.807,59.275,8.78,66.98,0.2161,-0.8560,0.4553,-35.921,-33.726,-44.014,-13.62,-66.75,0.0000,0.0000,0.0000,0.000,0.000,0.000,0.00,0.00,-6.44,0.11,6.55
3048,3300.00,3300.00,3300.00,-0.0886,0.9597,0.5164,26.756,-28.502,62.679,8.01,67.52,0.2312,-0.8586,0.4395,-40.394,-30.825,-43.434,-14.35,-67.64,0.0000,0.0000,0.0000,0.000,0.000,0.000,0.00,0.00,-6.56,0.44,7.00
3062,3300.00,3300.00,3300.00,-0.0579,0.9468,0.5068,22.817,-24.227,63.809,7.57,67.72,0.2261,-0.8655,0.4341,-40.043,-28.947,-43.312,-14.73,-68.12,0.0000,0.0000,0.0000,0.000,0.000,0.000,0.00,0.00,-6.68,0.77,7.45
3086,2713.33,0.00,0.00,-0.0430,0.9277,0.5332,28.771,-29.265,53.473,6.76,68.27,0.2278,-0.8840,0.4238,-37.310,-26.230,-43.174,-15.34,-68.94,0.0000,0.0000,0.0000,0.000,0.000,0.000,0.00,0.00,-6.77,1.14,7.91
3101,3300.00,2217.73,1990.48,-0.0330,0.9417,0.5042,32.313,-26.929,50.618,6.29,68.59,0.2371,-0.8806,0.4185,-35.280,-26.764,-42.991,-15.67,-69.35,0.0000,0.0000,0.0000,0.000,0.000,0.000,0.00,0.00,-6.84,1.52,8.36
3125,3300.00,1714.07,3300.00,-0.0269,0.9661,0.4956,42.633,-25.250,41.931,5.58,69.49,0.2415,-0.8855,0.4185,-30.959,-23.802,-44.197,-16.21,-70.00,0.0000,0.0000,0.0000,0.000,0.000,0.000,0.00,0.00,-6.90,1.92,8.82
3139,968.64,0.00,0.00,-0.0361,0.9685,0.5186,40.389,-26.227,42.145,5.14,69.90,0.2461,-0.8713,0.4248,-31.051,-24.016,-44.411,-16.50,-70.31,0.0000,0.0000,0.0000,0.000,0.000,0.000,0.00,0.00,-6.94,2.33,9.27
3164,3300.00,3300.00,3300.00,-0.0471,0.9592,0.5100,43.000,-26.181,39.214,4.47,70.77,0.2285,-0.8792,0.4319,-28.929,-22.840,-44.732,-16.98,-70.87,0.0000,0.0000,0.0000,0.000,0.000,0.000,0.00,0.00,-6.97,2.75,9.72
3178,3300.00,3300.00,3300.00,-0.0466,0.9587,0.4963,43.504,-24.746,39.412,4.08,71.22,0.2183,-0.8757,0.4302,-28.456,-24.092,-44.472,-17.23,-71.13,0.0000,0.0000,0.0000,0.000,0.000,0.000,0.00,0.00,-6.98,3.17,10.15
3202,0.00,0.00,0.00,-0.0295,0.9414,0.4961,46.954,-20.654,37.779,3.53,72.17,0.2058,-0.8792,0.4150,-24.074,-27.115,-44.273,-17.78,-71.58,0.0000,0.0000,0.0000,0.000,0.000,0.000,0.00,0.00,-7.00,3.60,10.59
3217,3300.00,0.00,1841.39,-0.0164,0.9497,0.4829,40.649,-21.204,40.252,3.19,72.55,0.2195,-0.8835,0.4045,-23.066,-29.527,-42.930,-18.09,-71.78,0.0000,0.0000,0.0000,0.000,0.000,0.000,0.00,0.00,-7.01,4.02,11.03
3231,3300.00,3300.00,3300.00,-0.0188,0.9685,0.4902,40.130,-19.448,40.801,2.87,72.92,0.2412,-0.8765,0.4009,-20.517,-31.283,-42.564,-18.45,-71.94,0.0000,0.0000,0.0000,0.000,0.000,0.000,0.00,0.00,-7.02,4.43,11.46
3256,3300.00,0.00,0.00,-0.0173,1.0051,0.4534,28.145,-16.135,47.183,2.44,73.46,0.2600,-0.8789,0.3945,-24.120,-33.405,-39.464,-19.18,-72.39,0.0000,0.0000,0.0000,0.000,0.000,0.000,0.00,0.00,-7.05,4.85,11.91
3270,3300.00,498.02,3300.00,-0.0840,1.3804,-0.3044,-122.680,354.262,58.114,7.43,72.31,0.2595,-0.9099,0.3914,-23.249,-34.978,-39.678,-19.58,-72.61,0.0000,0.0000,0.0000,0.000,0.000,0.000,0.00,0.00,-7.46,4.89,12.35
3294,3300.00,3300.00,3300.00,-0.0210,0.9856,0.3804,-3.199,-62.746,63.519,5.80,72.17,0.2810,-0.8855,0.3906,-19.219,-38.993,-39.525,-20.45,-72.94,0.0000,0.0000,0.0000,0.000,0.000,0.000,0.00,0.00,-7.79,5.04,12.83
3309,3300.00,3300.00,3300.00,0.0100,1.0122,0.3630,13.473,36.063,54.924,6.18,72.32,0.2927,-0.8713,0.3823,-13.326,-40.901,-41.724,-20.96,-72.99,0.0000,0.0000,0.0000,0.000,0.000,0.000,0.00,0.00,-8.15,5.15,13.30
3333,3300.00,530.26,2334.58,0.0371,1.0325,0.3796,-2.496,-2.059,60.237,5.97,72.21,0.3411,-0.8796,0.3911,-17.982,-45.054,-38.380,-22.01,-73.29,0.0000,0.0000,0.0000,0.000,0.000,0.000,0.00,0.00,-8.55,5.27,13.82
3347,3300.00,3300.00,3300.00,0.0391,1.0210,0.4226,-37.580,-25.494,64.359,5.45,71.59,0.3474,-0.8804,0.3809,-17.494,-44.382,-40.106,-22.58,-73.40,0.0000,0.0000,0.0000,0.000,0.000,0.000,0.00,0.00,-8.93,5.42,14.34
3372,3300.00,3300.00,3300.00,0.0076,0.9553,0.4868,44.542,-51.967,50.023,4.09,72.49,0.3743,-0.8767,0.3665,-14.394,-46.352,-44.289,-23.68,-73.62,0.0000,0.0000,0.0000,0.000,0.000,0.000,0.00,0.00,-9.26,5.65,14.91
3386,3300.00,0.00,605.20,0.1331,0.9814,0.2832,42.817,-44.242,53.076,3.24,73.12,0.3718,-0.8604,0.3689,-9.799,-46.703,-47.968,-24.29,-73.62,0.0000,0.0000,0.0000,0.000,0.000,0.000,0.00,0.00,-9.55,5.93,15.47
3411,3300.00,3300.00,3300.00,0.1973,1.0425,0.3511,12.817,7.788,47.748,3.16,73.39,0.4060,-0.8750,0.3628,-15.127,-49.390,-45.220,-25.45,-73.86,0.0000,0.0000,0.0000,0.000,0.000,0.000,0.00,0.00,-9.89,6.19,16.08
3425,3300.00,3300.00,3300.00,0.1172,0.9680,0.2959,23.931,9.972,46.267,3.10,73.72,0.4451,-0.8787,0.3577,-10.181,-51.039,-41.831,-26.16,-73.88,0.0000,0.0000,0.0000,0.000,0.000,0.000,0.00,0.00,-10.26,6.44,16.69
3449,3300.00,1150.77,2887.40,0.0232,1.0283,0.4326,58.313,-10.181,51.901,2.77,74.99,0.4185,-0.8110,0.3794,-14.104,-48.352,-45.480,-27.30,-74.04,0.0000,0.0000,0.0000,0.000,0.000,0.000,0.00,0.00,-10.66,6.69,17.35
3464,3300.00,3300.00,3300.00,0.0034,1.0208,0.4138,46.282,-25.082,62.603,2.36,75.49,0.4065,-0.7991,0.3923,-22.746,-44.413,-45.510,-27.87,-74.16,0.0000,0.0000,0.0000,0.000,0.000,0.000,0.00,0.00,-11.04,6.95,17.99
3488,0.00,0.00,0.00,0.0723,1.0222,0.3782,27.061,-10.028,63.443,2.00,76.03,0.4187,-0.8152,0.3916,-35.662,-41.313,-44.014,-28.80,-74.82,0.0000,0.0000,0.0000,0.000,0.000,0.000,0.00,0.00,-11.43,7.22,18.66
3502,0.00,0.00,0.00,0.1160,0.9958,0.4041,18.252,-19.204,66.679,1.57,76.12,0.4294,-0.8352,0.3718,-38.562,-41.955,-43.357,-29.31,-75.18,0.0000,0.0000,0.0000,0.000,0.000,0.000,0.00,0.00,-11.80,7.51,19.31
3517,3150.11,0.00,1098.39,0.1519,0.9814,0.3728,18.985,-23.616,65.779,1.04,76.25,0.4473,-0.8613,0.3567,-36.608,-43.359,-45.174,-29.84,-75.53,0.0000,0.0000,0.0000,0.000,0.000,0.000,0.00,0.00,-12.15,7.81,19.96
3541,2621.47,47.55,1075.02,0.1682,0.9744,0.3347,37.809,-2.151,53.137,0.79,77.05,0.4490,-0.8955,0.3489,-25.097,-43.146,-48.197,-30.78,-76.00,0.0000,0.0000,0.0000,0.000,0.000,0.000,0.00,0.00,-12.52,8.10,20.62
3555,0.00,0.00,0.00,0.1477,0.9883,0.3535,31.794,5.498,48.160,0.69,77.36,0.4368,-0.8823,0.3652,-17.066,-46.092,-50.548,-31.30,-76.07,0.0000,0.0000,0.0000,0.000,0.000,0.000,0.00,0.00,-12.89,8.38,21.28
3570,0.00,0.00,0.00,0.1035,0.9883,0.4009,37.656,6.643,45.031,0.66,77.70,0.4246,-0.8542,0.3408,-11.127,-47.527,-51.190,-31.83,-76.07,0.0000,0.0000,0.0000,0.000,0.000,0.000,0.00,0.00,-13.28,8.65,21.93
3594,3300.00,3300.00,3300.00,0.0632,1.0129,0.4229,45.320,-11.402,51.870,0.30,78.58,0.4343,-0.8010,0.3044,-18.394,-42.336,-53.419,-32.75,-76.37,0.0000,0.0000,0.0000,0.000,0.000,0.000,0.00,0.00,-13.67,8.92,22.59
3608,2854.36,116.04,1555.31,0.1313,1.0405,0.3823,20.145,3.254,60.206,0.21,78.68,0.4487,-0.7629,0.2949,-28.761,-40.962,-51.083,-33.24,-76.62,0.0000,0.0000,0.0000,0.000,0.000,0.000,0.00,0.00,-14.07,9.18,23.25
3633,1851.06,0.00,103.15,0.2102,1.0273,0.4148,4.923,-14.593,67.824,-0.36,78.59,0.4978,-0.8081,0.2700,-46.364,-36.001,-41.342,-34.05,-77.63,0.0000,0.0000,0.0000,0.000,0.000,0.000,0.00,0.00,-14.45,9.46,23.91
3647,3300.00,2100.07,3300.00,0.2202,0.9858,0.4131,-3.275,-36.395,69.076,-1.10,78.32,0.5071,-0.8381,0.2668,-47.784,-35.726,-37.449,-34.46,-78.19,0.0000,0.0000,0.0000,0.000,0.000,0.000,0.00,0.00,-14.79,9.77,24.56
3672,0.00,0.00,0.00,0.2178,0.9663,0.3640,8.862,-37.250,58.786,-2.21,78.35,0.4990,-0.8604,0.2649,-40.669,-32.336,-38.884,-35.13,-79.07,0.0000,0.0000,0.0000,0.000,0.000,0.000,0.00,0.00,-15.07,10.14,25.21
3686,0.00,0.00,0.00,0.2273,0.9575,0.3506,13.000,-29.433,54.405,-2.83,78.36,0.4890,-0.8630,0.2527,-37.265,-30.245,-40.609,-35.42,-79.48,0.0000,0.0000,0.0000,0.000,0.000,0.000,0.00,0.00,-15.30,10.53,25.83
3700,1714.87,0.00,0.00,0.2234,0.9751,0.3660,10.847,-19.723,52.511,-3.29,78.34,0.4905,-0.8428,0.2649,-35.982,-30.840,-40.518,-35.73,-79.85,0.0000,0.0000,0.0000,0.000,0.000,0.000,0.00,0.00,-15.51,10.92,26.43
3725,3300.00,3300.00,3300.00,0.2029,0.9749,0.3723,12.099,-23.051,51.611,-3.99,78.44,0.5032,-0.8020,0.2632,-37.906,-27.222,-38.365,-36.28,-80.59,0.0000,0.0000,0.0000,0.000,0.000,0.000,0.00,0.00,-15.70,11.33,27.03
3739,1939.71,0.00,411.79,0.2058,0.9641,0.3625,19.091,-24.425,50.114,-4.48,78.53,0.5171,-0.7952,0.2471,-44.333,-26.626,-34.487,-36.56,-81.05,0.0000,0.0000,0.0000,0.000,0.000,0.000,0.00,0.00,-15.86,11.75,27.61
3763,3300.00,3300.00,3300.00,0.2488,0.9529,0.3438,9.656,-30.410,52.160,-5.40,78.59,0.5127,-0.8311,0.2317,-52.120,-24.199,-30.747,-37.03,-82.17,0.0000,0.0000,0.0000,0.000,0.000,0.000,0.00,0.00,-15.97,12.20,28.18
3778,3300.00,3300.00,3300.00,0.2793,0.9541,0.3484,7.611,-30.288,51.336,-6.02,78.52,0.5347,-0.8486,0.2178,-45.081,-21.985,-33.067,-37.22,-82.67,0.0000,0.0000,0.0000,0.000,0.000,0.000,0.00,0.00,-16.05,12.67,28.72
3802,3300.00,0.00,2053.33,0.2798,0.9663,0.3342,7.091,-34.028,49.656,-7.03,78.54,0.5549,-0.8567,0.2307,-32.578,-25.207,-35.831,-37.73,-83.30,0.0000,0.0000,0.0000,0.000,0.000,0.000,0.00,0.00,-16.09,13.17,29.26
3816,3300.00,3300.00,3300.00,0.2817,0.9746,0.3230,2.572,-33.799,51.107,-7.67,78.44,0.5527,-0.8398,0.2214,-32.914,-24.275,-37.938,-37.96,-83.60,0.0000,0.0000,0.0000,0.000,0.000,0.000,0.00,0.00,-16.09,13.68,29.77
3841,3300.00,3300.00,3300.00,0.2727,0.9695,0.3533,14.191,-33.051,48.450,-8.60,78.61,0.5515,-0.8247,0.2075,-33.539,-25.787,-37.373,-38.48,-84.25,0.0000,0.0000,0.0000,0.000,0.000,0.000,0.00,0.00,-16.07,14.23,30.29
3855,3300.00,3086.45,3300.00,0.2859,0.9609,0.3506,12.771,-32.609,48.282,-9.20,78.62,0.5454,-0.8440,0.1982,-33.097,-26.810,-39.052,-38.73,-84.56,0.0000,0.0000,0.0000,0.000,0.000,0.000,0.00,0.00,-16.02,14.77,30.79
3880,3300.00,3300.00,3300.00,0.2903,0.9646,0.3467,12.328,-27.586,50.725,-9.99,78.75,0.5583,-0.8040,0.1799,-31.982,-27.924,-42.365,-39.31,-85.19,0.0000,0.0000,0.0000,0.000,0.000,0.000,0.00,0.00,-15.96,15.33,31.30
3894,3300.00,3300.00,3300.00,0.2913,0.9983,0.3467,18.313,-28.028,52.985,-10.49,78.84,0.5569,-0.8000,0.1682,-38.501,-27.313,-41.296,-39.59,-85.59,0.0000,0.0000,0.0000,0.000,0.000,0.000,0.00,0.00,-15.89,15.89,31.79
3918,3300.00,752.67,2367.62,0.3491,0.9604,0.3450,4.740,-28.822,60.145,-11.35,78.79,0.5547,-0.8330,0.1350,-50.929,-25.787,-36.380,-40.08,-86.71,0.0000,0.0000,0.0000,0.000,0.000,0.000,0.00,0.00,-15.80,16.47,32.27
3933,3300.00,3300.00,3300.00,0.3660,0.9507,0.3567,-3.611,-30.654,61.595,-11.95,78.55,0.5686,-0.8550,0.1514,-46.623,-27.985,-36.884,-40.33,-87.23,0.0000,0.0000,0.0000,0.000,0.000,0.000,0.00,0.00,-15.69,17.05,32.75
3957,3300.00,3300.00,3300.00,0.3491,0.9241,0.3867,-1.794,-36.486,60.863,-12.97,78.28,0.5542,-0.8464,0.1179,-39.952,-31.390,-40.472,-40.94,-88.08,0.0000,0.0000,0.0000,0.000,0.000,0.000,0.00,0.00,-15.56,17.67,33.23
3972,3300.00,3300.00,3300.00,0.3684,0.9116,0.3760,-1.031,-35.769,60.481,-13.62,78.05,0.5454,-0.8430,0.0984,-35.234,-32.779,-42.273,-41.23,-88.48,0.0000,0.0000,0.0000,0.000,0.000,0.000,0.00,0.00,-15.42,18.28,33.70
3996,3300.00,3300.00,3300.00,0.4055,0.9023,0.3555,-7.748,-31.006,63.092,-14.55,77.67,0.5803,-0.8188,0.0930,-39.448,-30.489,-43.434,-41.85,-89.33,0.0000,0.0000,0.0000,0.000,0.000,0.000,0.00,0.00,-15.26,18.92,34.18
4010,3300.00,3300.00,3300.00,0.3909,0.9270,0.3645,-4.237,-32.731,64.603,-15.14,77.43,0.5811,-0.8201,0.1057,-39.723,-27.375,-45.190,-42.09,-89.75,0.0000,0.0000,0.0000,0.000,0.000,0.000,0.00,0.00,-15.09,19.55,34.64
4035,3300.00,1041.98,2461.90,0.4072,0.9126,0.3445,15.962,-24.242,61.366,-15.88,77.65,0.6006,-0.8174,0.0974,-37.830,-31.588,-47.709,-42.73,-90.53,0.0000,0.0000,0.0000,0.000,0.000,0.000,0.00,0.00,-14.92,20.19,35.12
4049,3300.00,3300.00,3300.00,0.4182,0.9067,0.3157,20.221,-26.288,60.756,-16.40,77.80,0.6042,-0.8301,0.1035,-30.318,-35.481,-51.251,-43.09,-90.80,0.0000,0.0000,0.0000,0.000,0.000,0.000,0.00,0.00,-14.76,20.82,35.58
4074,3300.00,3300.00,3300.00,0.4243,0.9055,0.2744,30.038,-22.685,58.481,-17.10,78.43,0.6487,-0.7808,0.1052,-19.738,-37.222,-55.785,-43.91,-91.11,0.0000,0.0000,0.0000,0.000,0.000,0.000,0.00,0.00,-14.61,21.46,36.07
4088,1901.03,18.53,219.19,0.4270,0.9053,0.2488,33.366,-16.364,55.763,-17.47,78.82,0.6543,-0.7722,0.1138,-21.112,-39.207,-50.808,-44.38,-91.21,0.0000,0.0000,0.0000,0.000,0.000,0.000,0.00,0.00,-14.49,22.08,36.56
4112,3300.00,3300.00,3300.00,0.3958,0.9219,0.2463,51.000,-17.876,48.069,-18.00,79.96,0.6948,-0.7385,0.1165,-18.944,-40.825,-49.922,-45.33,-91.46,0.0000,0.0000,0.0000,0.000,0.000,0.000,0.00,0.00,-14.40,22.69,37.09
4127,3300.00,3300.00,3300.00,0.3789,0.9448,0.2441,53.320,-18.349,49.672,-18.32,80.62,0.6917,-0.7024,0.1125,-24.394,-37.756,-50.609,-45.83,-91.59,0.0000,0.0000,0.0000,0.000,0.000,0.000,0.00,0.00,-14.32,23.28,37.61
4151,1625.42,0.00,1169.30,0.4707,0.9319,0.2283,39.030,-24.609,51.595,-19.07,81.47,0.6982,-0.7246,0.0676,-28.685,-38.046,-45.739,-46.71,-92.14,0.0000,0.0000,0.0000,0.000,0.000,0.000,0.00,0.00,-14.27,23.89,38.15
4165,3300.00,3300.00,3300.00,0.4902,0.9141,0.2075,42.878,-17.311,48.603,-19.48,81.99,0.7109,-0.7590,0.0627,-28.486,-41.710,-43.174,-47.22,-92.40,0.0000,0.0000,0.0000,0.000,0.000,0.000,0.00,0.00,-14.22,24.48,38.70
4190,3059.85,1357.88,1766.45,0.4832,0.8994,0.1895,50.114,-11.097,44.557,-19.91,83.11,0.7197,-0.7737,0.0693,-22.837,-44.932,-40.396,-48.21,-92.80,0.0000,0.0000,0.0000,0.000,0.000,0.000,0.00,0.00,-14.22,25.05,39.27
4204,0.00,0.00,0.00,0.4727,0.9080,0.2048,53.672,-5.372,41.504,-20.13,83.75,0.7009,-0.7576,0.0691,-17.982,-44.779,-39.648,-48.72,-92.89,0.0000,0.0000,0.0000,0.000,0.000,0.000,0.00,0.00,-14.23,25.61,39.84
4229,3300.00,3300.00,3300.00,0.4529,0.9226,0.2336,46.786,-9.525,38.130,-20.46,84.71,0.7102,-0.7246,0.0684,-12.593,-45.894,-39.556,-49.74,-93.03,0.0000,0.0000,0.0000,0.000,0.000,0.000,0.00,0.00,-14.30,26.15,40.44
4243,3300.00,3300.00,3300.00,0.4570,0.9333,0.1992,34.435,-7.738,40.618,-20.67,85.05,0.7102,-0.7305,0.0750,-7.753,-46.642,-37.877,-50.27,-92.96,0.0000,0.0000,0.0000,0.000,0.000,0.000,0.00,0.00,-14.38,26.66,41.04
4267,0.00,0.00,0.00,0.4321,0.9338,0.2461,24.450,-10.425,44.160,-20.99,85.45,0.6987,-0.6975,0.0291,-25.326,-48.107,-27.159,-51.33,-93.46,0.0000,0.0000,0.0000,0.000,0.000,0.000,0.00,0.00,-14.51,27.16,41.67
4282,3300.00,2720.59,3300.00,0.4075,0.9585,0.2424,24.389,-11.876,46.847,-21.19,85.59,0.7046,-0.6848,0.0396,-29.707,-45.054,-26.014,-51.84,-93.74,0.0000,0.0000,0.0000,0.000,0.000,0.000,0.00,0.00,-14.65,27.64,42.29
4306,479.49,0.00,0.00,0.4709,0.9292,0.2463,6.145,-12.990,53.031,-21.60,85.53,0.6953,-0.7292,0.0176,-39.478,-45.970,-20.044,-52.79,-94.59,0.0000,0.0000,0.0000,0.000,0.000,0.000,0.00,0.00,-14.82,28.12,42.93
4320,0.00,0.00,0.00,0.4993,0.9182,0.2173,-3.855,-13.754,53.183,-21.92,85.30,0.7205,-0.7632,-0.0012,-44.639,-47.894,-14.518,-53.27,-95.12,0.0000,0.0000,0.0000,0.000,0.000,0.000,0.00,0.00,-14.99,28.58,43.57
4345,3300.00,3300.00,3300.00,0.5254,0.8464,0.2429,-7.092,-17.662,50.786,-22.52,84.91,0.6760,-0.7722,-0.0195,-42.013,-44.336,-15.678,-54.08,-96.05,0.0000,0.0000,0.0000,0.000,0.000,0.000,0.00,0.00,-15.16,29.05,44.21
4359,3300.00,3300.00,3300.00,0.5286,0.8589,0.2410,-3.092,-18.013,48.389,-22.93,84.65,0.6575,-0.7773,-0.0435,-43.051,-42.489,-11.327,-54.40,-96.60,0.0000,0.0000,0.0000,0.000,0.000,0.000,0.00,0.00,-15.31,29.52,44.83
4384,0.00,0.00,170.04,0.5493,0.8716,0.2673,-8.359,-8.899,45.931,-23.31,84.22,0.6814,-0.7561,-0.0801,-40.165,-40.550,-15.434,-55.13,-97.56,0.0000,0.0000,0.0000,0.000,0.000,0.000,0.00,0.00,-15.48,29.99,45.46
4398,3300.00,3300.00,3300.00,0.5522,0.8457,0.2529,-8.298,-15.387,46.832,-23.70,83.88,0.6953,-0.7529,-0.0776,-42.898,-36.397,-14.518,-55.39,-98.13,0.0000,0.0000,0.0000,0.000,0.000,0.000,0.00,0.00,-15.62,30.44,46.07
4423,2322.49,781.68,1869.60,0.5369,0.8215,0.2432,-4.817,-21.464,42.481,-24.38,83.56,0.6953,-0.7529,-0.0525,-29.601,-31.375,-19.663,-55.89,-98.75,0.0000,0.0000,0.0000,0.000,0.000,0.000,0.00,0.00,-15.75,30.92,46.66
4437,0.00,0.00,0.00,0.5405,0.8408,0.2561,-0.970,-28.990,40.634,-24.93,83.34,0.6492,-0.7764,-0.0566,-26.929,-31.222,-19.052,-56.01,-99.04,0.0000,0.0000,0.0000,0.000,0.000,0.000,0.00,0.00,-15.83,31.40,47.23
4461,3300.00,3300.00,3300.00,0.5474,0.8188,0.2207,9.763,-14.822,33.901,-25.45,83.40,0.6785,-0.7427,-0.0774,-17.723,-26.810,-22.212,-56.37,-99.40,0.0000,0.0000,0.0000,0.000,0.000,0.000,0.00,0.00,-15.90,31.88,47.77
4476,3300.00,3300.00,3300.00,0.5547,0.8174,0.2444,10.679,-11.387,34.023,-25.76,83.35,0.6970,-0.7080,-0.0864,-13.982,-30.138,-22.991,-56.56,-99.55,0.0000,0.0000,0.0000,0.000,0.000,0.000,0.00,0.00,-15.95,32.35,48.30
4500,137.80,0.00,987.18,0.5427,0.8635,0.2097,13.122,-4.120,34.435,-25.97,83.53,0.7266,-0.6914,-0.0730,-21.417,-28.230,-23.815,-57.03,-99.99,0.0000,0.0000,0.0000,0.000,0.000,0.000,0.00,0.00,-16.02,32.80,48.82
4514,3300.00,3287.91,3300.00,0.5481,0.8630,0.1707,9.870,-2.792,35.092,-26.13,83.57,0.7642,-0.6772,-0.0737,-24.715,-21.833,-21.480,-57.16,-100.26,0.0000,0.0000,0.0000,0.000,0.000,0.000,0.00,0.00,-16.08,33.23,49.31
4539,0.00,0.00,0.00,0.5559,0.8521,0.1709,13.244,-7.998,32.313,-26.45,83.79,0.7532,-0.7029,-0.0513,-26.104,-18.367,-19.266,-57.39,-100.77,0.0000,0.0000,0.0000,0.000,0.000,0.000,0.00,0.00,-16.13,33.65,49.78
4553,0.00,0.00,0.00,0.5669,0.8274,0.1956,16.771,-9.586,29.565,-26.73,83.88,0.7217,-0.7185,-0.0889,-22.349,-17.955,-21.281,-57.39,-101.01,0.0000,0.0000,0.0000,0.000,0.000,0.000,0.00,0.00,-16.16,34.07,50.23
4567,0.00,0.00,0.00,0.5676,0.8340,0.1868,13.901,-15.540,30.191,-27.08,83.94,0.7361,-0.6772,-0.0901,-19.891,-22.565,-19.067,-57.50,-101.22,0.0000,0.0000,0.0000,0.000,0.000,0.000,0.00,0.00,-16.17,34.48,50.64
4592,3300.00,1951.79,1764.03,0.5962,0.8508,0.1882,15.381,-15.158,32.038,-27.59,84.19,0.7539,-0.6807,-0.1135,-23.448,-22.581,-18.732,-57.85,-101.74,0.0000,0.0000,0.0000,0.000,0.000,0.000,0.00,0.00,-16.17,34.89,51.06
4606,0.00,0.00,0.00,0.6077,0.8506,0.1892,14.099,-11.662,28.740,-27.90,84.25,0.7473,-0.6812,-0.1267,-21.738,-21.329,-16.472,-57.93,-102.02,0.0000,0.0000,0.0000,0.000,0.000,0.000,0.00,0.00,-16.15,35.30,51.45
4631,2607.77,2255.60,3300.00,0.6138,0.8179,0.2004,6.786,-12.028,30.038,-28.36,84.25,0.7512,-0.6772,-0.1487,-21.081,-19.863,-15.861,-58.20,-102.54,0.0000,0.0000,0.0000,0.000,0.000,0.000,0.00,0.00,-16.12,35.71,51.83
4645,3300.00,3300.00,3300.00,0.6274,0.8145,0.1726,7.504,-12.212,31.427,-28.70,84.23,0.7517,-0.6858,-0.1416,-20.456,-20.901,-15.296,-58.27,-102.81,0.0000,0.0000,0.0000,0.000,0.000,0.000,0.00,0.00,-16.07,36.12,52.19
4670,0.00,0.00,0.00,0.6240,0.8147,0.1780,0.236,-9.341,36.023,-29.09,84.11,0.7617,-0.6853,-0.1616,-18.791,-20.459,-19.083,-58.54,-103.27,0.0000,0.0000,0.0000,0.000,0.000,0.000,0.00,0.00,-16.02,36.52,52.54
4684,0.00,0.00,0.00,0.6567,0.8081,0.1887,0.786,-13.525,36.343,-29.46,83.97,0.7578,-0.6846,-0.1736,-16.761,-23.375,-21.067,-58.63,-103.52,0.0000,0.0000,0.0000,0.000,0.000,0.000,0.00,0.00,-15.95,36.93,52.88
4698,1016.19,236.12,1851.87,0.6428,0.8196,0.1689,3.000,-17.433,35.855,-29.87,83.90,0.7842,-0.6702,-0.1453,-23.097,-22.535,-19.785,-58.75,-103.82,0.0000,0.0000,0.0000,0.000,0.000,0.000,0.00,0.00,-15.86,37.33,53.20
4722,0.00,0.00,0.00,0.6189,0.8235,0.1506,15.091,-18.548,32.878,-30.44,84.18,0.7773,-0.6746,-0.1274,-33.081,-18.062,-16.182,-58.98,-104.55,0.0000,0.0000,0.0000,0.000,0.000,0.000,0.00,0.00,-15.76,37.75,53.51
4737,0.00,0.00,0.00,0.6331,0.8076,0.1174,10.206,-19.173,33.992,-30.86,84.27,0.7712,-0.6721,-0.1396,-26.959,-22.596,-16.396,-59.09,-104.87,0.0000,0.0000,0.0000,0.000,0.000,0.000,0.00,0.00,-15.65,38.16,53.81
4761,3300.00,3300.00,3300.00,0.6050,0.8120,0.1782,-4.237,-23.922,35.260,-31.54,84.04,0.7603,-0.6487,-0.1238,-23.555,-22.871,-15.541,-59.43,-105.36,0.0000,0.0000,0.0000,0.000,0.000,0.000,0.00,0.00,-15.51,38.60,54.11
4776,3300.00,3300.00,3300.00,0.6240,0.8218,0.1870,-1.840,-27.189,35.885,-32.02,83.88,0.7671,-0.6370,-0.1802,-25.768,-18.153,-14.701,-59.48,-105.73,0.0000,0.0000,0.0000,0.000,0.000,0.000,0.00,0.00,-15.36,39.03,54.40
4800,0.00,0.00,0.00,0.6538,0.8342,0.1401,1.320,-0.715,34.634,-32.15,83.84,0.7598,-0.6917,-0.1821,-28.181,-18.245,-13.205,-59.67,-106.38,0.0000,0.0000,0.0000,0.000,0.000,0.000,0.00,0.00,-15.22,39.45,54.67
4814,2384.54,1941.32,3300.00,0.6401,0.8120,0.1931,-1.183,4.017,34.725,-32.20,83.68,0.7634,-0.6807,-0.1516,-28.181,-18.382,-11.709,-59.68,-106.70,0.0000,0.0000,0.0000,0.000,0.000,0.000,0.00,0.00,-15.09,39.84,54.93
4839,0.00,0.00,0.00,0.6296,0.8059,0.1658,-18.496,-9.204,35.198,-32.53,83.13,0.7510,-0.6458,-0.1719,-21.372,-18.245,-8.732,-59.89,-107.18,0.0000,0.0000,0.0000,0.000,0.000,0.000,0.00,0.00,-14.96,40.23,55.19
4853,0.00,0.00,0.00,0.6260,0.8284,0.1714,-20.878,-6.532,32.099,-32.70,82.74,0.7378,-0.6428,-0.1851,-30.700,-15.237,-2.075,-59.86,-107.58,0.0000,0.0000,0.0000,0.000,0.000,0.000,0.00,0.00,-14.83,40.60,55.42
4867,0.00,0.00,0.00,0.6042,0.8088,0.1770,-20.374,-7.998,29.183,-32.88,82.36,0.7739,-0.6086,-0.1855,-35.494,-10.336,4.505,-59.82,-108.07,0.0000,0.0000,0.0000,0.000,0.000,0.000,0.00,0.00,-14.69,40.95,55.64
4892,3300.00,2232.23,2951.87,0.6450,0.7332,0.1655,-23.428,-30.593,31.137,-33.77,81.69,0.7698,-0.6743,-0.1992,-43.906,-10.443,6.230,-59.83,-109.09,0.0000,0.0000,0.0000,0.000,0.000,0.000,0.00,0.00,-14.49,41.35,55.84
4906,0.00,0.00,0.00,0.7156,0.7258,0.1562,-17.901,-35.830,31.366,-34.48,81.36,0.7612,-0.6951,-0.2002,-34.196,-9.817,-1.663,-59.70,-109.51,0.0000,0.0000,0.0000,0.000,0.000,0.000,0.00,0.00,-14.26,41.77,56.02
4931,2842.27,2785.05,3300.00,0.6589,0.8010,0.1648,-11.886,-21.326,29.382,-35.08,81.02,0.5173,-1.8936,-0.2954,-83.753,3.099,2.704,-58.73,-111.32,0.0000,0.0000,0.0000,0.000,0.000,0.000,0.00,0.00,-13.92,42.20,56.12
4945,3300.00,3300.00,3300.00,0.6543,0.7529,0.2124,-9.244,-18.303,25.229,-35.43,80.75,0.6624,-0.5989,-0.1892,-15.616,-18.825,-4.747,-58.75,-111.46,0.0000,0.0000,0.0000,0.000,0.000,0.000,0.00,0.00,-13.59,42.62,56.21
4970,0.00,0.00,0.00,0.6528,0.7993,0.2117,-14.695,-18.777,22.176,-35.94,80.29,0.7727,-0.6306,-0.1658,-6.364,-11.680,-5.709,-58.85,-111.48,0.0000,0.0000,0.0000,0.000,0.000,0.000,0.00,0.00,-13.26,43.05,56.31
4984,0.00,0.00,0.00,0.6631,0.8120,0.1882,-18.374,-19.937,22.160,-36.27,79.96,0.7522,-0.6726,-0.2000,-16.868,-13.283,1.024,-58.80,-111.61,0.0000,0.0000,0.0000,0.000,0.000,0.000,0.00,0.00,-12.92,43.47,56.39
4998,1366.74,1147.55,3300.00,0.6670,0.7869,0.1594,-21.779,-8.670,24.359,-36.46,79.63,0.7666,-0.5957,-0.1675,2.537,-13.084,-4.716,-58.83,-111.46,0.0000,0.0000,0.0000,0.000,0.000,0.000,0.00,0.00,-12.59,43.88,56.47
5023,0.00,0.00,0.00,0.6292,0.7566,0.1875,-24.817,1.972,21.122,-36.46,78.96,0.7256,-0.6931,-0.1582,-4.746,-12.947,-6.106,-58.88,-111.40,0.0000,0.0000,0.0000,0.000,0.000,0.000,0.00,0.00,-12.29,44.26,56.55
5037,0.00,0.00,0.00,0.6577,0.7375,0.1567,-18.374,0.659,18.206,-36.55,78.69,0.7437,-0.6709,-0.1746,-0.608,-12.917,-5.877,-58.82,-111.27,0.0000,0.0000,0.0000,0.000,0.000,0.000,0.00,0.00,-12.00,44.62,56.61
5061,3300.00,3300.00,3300.00,0.6721,0.7722,0.1655,-12.023,-10.089,16.450,-36.86,78.38,0.7690,-0.6309,-0.2222,-1.799,-11.558,-1.709,-58.90,-111.28,0.0000,0.0000,0.0000,0.000,0.000,0.000,0.00,0.00,-11.71,44.97,56.68
5076,3300.00,3104.18,3187.18,0.6914,0.7769,0.2017,-11.519,-13.067,16.924,-37.12,78.16,0.7715,-0.6365,-0.2261,1.529,-8.092,-1.174,-58.81,-111.22,0.0000,0.0000,0.0000,0.000,0.000,0.000,0.00,0.00,-11.42,45.32,56.74
5100,0.00,0.00,0.00,0.6946,0.7520,0.1763,-20.298,-16.288,20.863,-37.61,77.65,0.7524,-0.5505,-0.2795,-4.074,-11.543,2.139,-58.93,-111.44,0.0000,0.0000,0.0000,0.000,0.000,0.000,0.00,0.00,-11.12,45.68,56.80
5114,1685.86,1296.63,3300.00,0.7192,0.7393,0.1003,-10.695,-2.380,20.908,-37.77,77.59,0.7676,-0.6082,-0.2202,-10.318,-15.191,-0.762,-58.96,-111.55,0.0000,0.0000,0.0000,0.000,0.000,0.000,0.00,0.00,-10.84,46.02,56.86
5139,0.00,0.00,0.00,0.7122,0.7422,0.1436,-2.527,-12.685,20.038,-38.19,77.56,0.7832,-0.6365,-0.2388,-12.257,-13.359,-5.724,-59.08,-111.82,0.0000,0.0000,0.0000,0.000,0.000,0.000,0.00,0.00,-10.55,46.37,56.93
5153,0.00,0.00,0.00,0.7275,0.7324,0.1479,2.679,-18.028,20.603,-38.56,77.62,0.8042,-0.6331,-0.2241,-15.356,-9.970,-6.869,-59.04,-111.99,0.0000,0.0000,0.0000,0.000,0.000,0.000,0.00,0.00,-10.26,46.72,56.98
5167,0.00,0.00,0.00,0.7244,0.7339,0.1423,4.939,-13.189,21.214,-38.85,77.71,0.7827,-0.6318,-0.2153,-20.089,-11.817,-7.113,-59.01,-112.21,0.0000,0.0000,0.0000,0.000,0.000,0.000,0.00,0.00,-9.96,47.07,57.03
5192,855.82,21.76,0.00,0.6934,0.7285,0.1814,-11.138,-9.952,25.809,-39.17,77.41,0.7627,-0.6528,-0.2131,-19.112,-12.459,-7.296,-59.09,-112.58,0.0000,0.0000,0.0000,0.000,0.000,0.000,0.00,0.00,-9.67,47.42,57.09
5206,0.00,0.00,0.00,0.6870,0.7505,0.1812,-10.619,-7.372,25.031,-39.32,77.24,0.7480,-0.6499,-0.2234,-16.959,-14.825,-4.167,-59.07,-112.75,0.0000,0.0000,0.0000,0.000,0.000,0.000,0.00,0.00,-9.39,47.75,57.13
5231,373.92,0.00,3058.24,0.7019,0.7478,0.1809,-4.695,-8.990,30.893,-39.60,77.11,0.6980,-0.6111,-0.2844,-31.524,2.045,3.742,-58.75,-113.55,0.0000,0.0000,0.0000,0.000,0.000,0.000,0.00,0.00,-9.08,48.07,57.16
5245,3300.00,2757.66,3300.00,0.7329,0.7253,0.1594,-13.077,-6.074,36.343,-39.78,76.94,0.7554,-0.6895,-0.2271,-18.914,-16.962,-9.434,-58.74,-113.71,0.0000,0.0000,0.0000,0.000,0.000,0.000,0.00,0.00,-8.78,48.39,57.18
5269,0.00,0.00,0.00,0.7068,0.7278,0.2021,6.481,-3.448,34.389,-39.93,77.05,0.7454,-0.7000,-0.2090,-14.959,-21.222,-19.235,-58.99,-113.92,0.0000,0.0000,0.0000,0.000,0.000,0.000,0.00,0.00,-8.51,48.70,57.21
5283,0.00,0.00,0.00,0.6921,0.7363,0.2080,5.229,-2.349,30.740,-40.01,77.06,0.7383,-0.6755,-0.2078,-10.379,-22.168,-19.510,-59.04,-113.93,0.0000,0.0000,0.0000,0.000,0.000,0.000,0.00,0.00,-8.26,48.99,57.25
5298,133.77,0.00,3300.00,0.6863,0.7495,0.2249,9.580,0.796,27.473,-40.02,77.12,0.7310,-0.6621,-0.1953,-3.570,-21.252,-18.899,-59.09,-113.83,0.0000,0.0000,0.0000,0.000,0.000,0.000,0.00,0.00,-8.03,49.26,57.28
5322,0.00,0.00,1276.48,0.6729,0.7612,0.2324,24.007,-5.647,20.740,-40.16,77.62,0.7419,-0.6628,-0.2271,-6.288,-18.978,-12.289,-59.29,-113.88,0.0000,0.0000,0.0000,0.000,0.000,0.000,0.00,0.00,-7.82,49.52,57.33
5336,0.00,0.00,2423.22,0.6934,0.7273,0.1973,3.198,-7.250,23.015,-40.31,77.61,0.7375,-0.6597,-0.2397,-8.852,-18.367,-11.480,-59.29,-113.93,0.0000,0.0000,0.0000,0.000,0.000,0.000,0.00,0.00,-7.61,49.77,57.38
5361,3300.00,3300.00,3300.00,0.7285,0.7083,0.2058,3.916,-0.761,22.038,-40.42,77.62,0.7166,-0.6692,-0.2595,-3.646,-18.779,-8.838,-59.46,-113.96,0.0000,0.0000,0.0000,0.000,0.000,0.000,0.00,0.00,-7.42,50.02,57.43
5375,3300.00,3300.00,3300.00,0.7751,0.6672,0.1929,15.763,3.025,19.336,-40.53,77.77,0.5388,-0.6287,-0.5486,28.751,-6.871,-20.487,-59.02,-113.90,0.0000,0.0000,0.0000,0.000,0.000,0.000,0.00,0.00,-7.20,50.25,57.45
5400,1988.06,1671.36,3300.00,0.7454,0.6748,0.1462,-11.138,17.895,17.901,-40.23,77.50,0.7415,-0.6099,-0.3120,45.392,12.977,-1.800,-58.47,-112.88,0.0000,0.0000,0.0000,0.000,0.000,0.000,0.00,0.00,-6.99,50.45,57.43
5414,3300.00,3300.00,3300.00,0.7090,0.7271,0.2085,-4.038,29.972,14.588,-39.87,77.38,0.8442,-0.7527,-0.1296,32.842,-4.794,-10.029,-58.33,-112.16,0.0000,0.0000,0.0000,0.000,0.000,0.000,0.00,0.00,-6.80,50.60,57.41
5438,0.00,0.00,0.00,0.6091,0.9465,0.1401,-23.443,-19.937,10.649,-40.20,76.90,0.8113,-0.5767,-0.1838,-11.402,-22.672,-5.632,-58.77,-112.34,0.0000,0.0000,0.0000,0.000,0.000,0.000,0.00,0.00,-6.64,50.77,57.41
5453,0.00,0.00,3300.00,0.6697,0.7092,0.1624,31.611,-33.464,-7.672,-40.72,77.34,0.7771,-0.5916,-0.2419,-25.036,-14.703,-6.747,-58.81,-112.69,0.0000,0.0000,0.0000,0.000,0.000,0.000,0.00,0.00,-6.45,50.97,57.42
5477,3300.00,3300.00,3300.00,0.7002,0.6956,0.0916,28.298,-10.700,-9.718,-41.06,78.12,0.7422,-0.6458,-0.2568,-34.593,4.030,12.612,-58.48,-113.50,0.0000,0.0000,0.0000,0.000,0.000,0.000,0.00,0.00,-6.23,51.17,57.40
5491,3300.00,3300.00,3300.00,0.7769,0.7312,0.1775,4.206,-18.013,0.939,-41.41,78.15,0.6890,-0.6216,-0.3223,-84.685,-34.413,69.253,-58.68,-114.76,0.0000,0.0000,0.0000,0.000,0.000,0.000,0.00,0.00,-6.01,51.39,57.40
5516,3300.00,3300.00,3300.00,0.7390,0.6990,0.1658,-16.267,-45.952,11.137,-42.60,77.73,0.8701,-0.5862,-0.1648,-34.898,-1.695,34.841,-58.65,-115.41,0.0000,0.0000,0.0000,0.000,0.000,0.000,0.00,0.00,-5.73,51.67,57.39
5530,3300.00,3300.00,3300.00,0.7656,0.6372,0.1350,-10.435,-67.494,12.084,-43.69,77.59,0.7976,-0.7058,-0.3257,23.422,-19.802,30.200,-58.67,-115.07,0.0000,0.0000,0.0000,0.000,0.000,0.000,0.00,0.00,-5.38,52.01,57.39
5555,0.00,0.00,3300.00,0.7578,0.6418,0.0957,15.229,-35.387,11.611,-44.65,78.03,0.7317,-0.6392,-0.2791,8.399,-10.230,10.383,-58.67,-114.84,0.0000,0.0000,0.0000,0.000,0.000,0.000,0.00,0.00,-5.00,52.39,57.39
5569,0.00,0.00,3300.00,0.7146,0.6562,0.1794,6.923,-60.517,17.214,-45.54,78.06,0.7129,-0.6697,-0.2551,7.544,0.946,2.627,-58.38,-114.65,0.0000,0.0000,0.0000,0.000,0.000,0.000,0.00,0.00,-4.56,52.81,57.37
5584,0.00,0.00,3300.00,0.8000,0.6562,0.0642,26.588,-26.822,5.397,-46.03,78.57,0.7227,-0.6765,-0.2747,8.262,-1.634,-4.854,-58.13,-114.48,0.0000,0.0000,0.0000,0.000,0.000,0.000,0.00,0.00,-4.10,53.23,57.33
5608,637.44,0.00,0.00,0.7859,0.7017,0.1226,43.717,23.620,-8.695,-45.49,79.66,0.7395,-0.6785,-0.2749,1.987,-10.107,-11.266,-58.11,-114.39,0.0000,0.0000,0.0000,0.000,0.000,0.000,0.00,0.00,-3.70,53.59,57.29
5622,0.00,0.00,0.00,0.9412,0.6873,-0.3560,88.527,88.445,-8.466,-44.36,81.65,0.7485,-0.6863,-0.3091,7.529,-28.550,-10.029,-58.25,-114.28,0.0000,0.0000,0.0000,0.000,0.000,0.000,0.00,0.00,-3.43,53.84,57.27
5637,0.00,0.00,0.00,0.3948,0.6138,-0.0503,21.733,124.078,2.160,-42.39,82.21,0.7173,-0.6545,-0.3140,10.644,-36.596,-1.190,-58.49,-114.16,0.0000,0.0000,0.0000,0.000,0.000,0.000,0.00,0.00,-3.33,53.94,57.26
5661,464.18,0.00,7.25,0.7512,0.7039,0.1643,20.069,-14.242,3.687,-42.81,82.58,0.7634,-0.6096,-0.3259,-3.219,-39.695,15.849,-59.22,-114.31,0.0000,0.0000,0.0000,0.000,0.000,0.000,0.00,0.00,-3.25,54.06,57.31
5675,407.77,0.00,0.00,0.7207,0.6890,0.1394,-1.168,1.972,14.481,-42.84,82.49,0.7690,-0.6069,-0.3030,-3.417,-43.420,11.421,-59.62,-114.40,0.0000,0.0000,0.0000,0.000,0.000,0.000,0.00,0.00,-3.21,54.17,57.38
5690,0.00,0.00,0.00,0.7686,0.7017,0.1582,-3.214,6.277,14.710,-42.83,82.34,0.7527,-0.6516,-0.2915,12.812,-42.291,1.589,-59.95,-114.22,0.0000,0.0000,0.0000,0.000,0.000,0.000,0.00,0.00,-3.20,54.27,57.47
5714,0.00,0.00,1276.48,0.7974,0.7290,0.0781,20.939,2.445,6.908,-42.86,82.87,0.7537,-0.6438,-0.3040,22.461,-37.390,-9.877,-60.58,-113.70,0.0000,0.0000,0.0000,0.000,0.000,0.000,0.00,0.00,-3.22,54.37,57.59
5728,0.00,0.00,2509.45,0.7429,0.6826,0.1294,18.084,-7.815,7.565,-43.05,83.05,0.7236,-0.6216,-0.4976,-26.639,-40.993,0.062,-60.78,-114.37,0.0000,0.0000,0.0000,0.000,0.000,0.000,0.00,0.00,-3.25,54.48,57.73
5743,0.00,0.00,0.00,0.7534,0.6155,0.0603,20.939,38.704,5.550,-42.66,83.37,0.7349,-0.6382,-0.2971,28.628,-57.222,-17.174,-61.29,-113.98,0.0000,0.0000,0.0000,0.000,0.000,0.000,0.00,0.00,-3.34,54.55,57.88
5767,0.00,0.00,3009.08,0.6729,0.6289,0.0911,-12.069,5.422,15.626,-42.61,83.05,0.7070,-0.6450,-0.3140,28.155,-52.138,-24.304,-62.20,-113.35,0.0000,0.0000,0.0000,0.000,0.000,0.000,0.00,0.00,-3.48,54.61,58.09
5781,0.00,0.00,3300.00,0.7993,0.4675,0.1658,11.244,-80.273,9.824,-44.04,82.95,0.7329,-0.6606,-0.3142,29.697,-50.138,-23.266,-62.56,-112.98,0.0000,0.0000,0.0000,0.000,0.000,0.000,0.00,0.00,-3.55,54.77,58.32
5806,0.00,0.00,0.00,0.8120,0.7080,0.1521,-22.527,-8.257,22.771,-44.33,82.31,0.7566,-0.6689,-0.3015,38.170,-54.428,-25.617,-63.52,-112.09,0.0000,0.0000,0.0000,0.000,0.000,0.000,0.00,0.00,-3.65,54.94,58.59
5820,0.00,0.00,0.00,0.6245,1.0051,0.2161,-61.153,-19.357,33.229,-44.33,81.37,0.7563,-0.6970,-0.3027,37.651,-53.283,-21.251,-63.89,-111.59,0.0000,0.0000,0.0000,0.000,0.000,0.000,0.00,0.00,-3.78,55.09,58.87
5834,0.00,0.00,0.00,0.7180,0.5706,0.2275,14.114,-39.525,10.634,-44.99,81.31,0.7424,-0.6484,-0.2710,25.743,-40.413,-13.709,-64.11,-111.26,0.0000,0.0000,0.0000,0.000,0.000,0.000,0.00,0.00,-3.86,55.28,59.14
5858,0.00,0.00,0.00,0.5881,0.7378,0.1118,-18.023,35.254,28.511,-44.01,80.88,0.7268,-0.6443,-0.2615,3.743,-11.115,-5.968,-64.02,-111.18,0.0000,0.0000,0.0000,0.000,0.000,0.000,0.00,0.00,-4.00,55.39,59.39
5873,0.00,0.00,0.00,0.7410,0.8096,0.1101,-2.252,-36.593,12.603,-44.48,80.87,0.7207,-0.6582,-0.2979,0.323,-0.962,-2.335,-63.65,-111.24,0.0000,0.0000,0.0000,0.000,0.000,0.000,0.00,0.00,-4.08,55.52,59.60
5887,0.00,0.00,0.00,0.7439,0.5889,0.0925,-21.931,-50.548,8.267,-45.33,80.57,0.7021,-0.6833,-0.3257,1.728,-0.413,-1.006,-63.24,-111.30,0.0000,0.0000,0.0000,0.000,0.000,0.000,0.00,0.00,-4.06,55.71,59.76
5911,0.00,0.00,0.00,0.7505,0.6523,-0.0151,-36.191,-30.166,15.611,-46.13,79.92,0.7100,-0.6404,-0.3184,-11.677,-15.069,7.925,-63.23,-111.69,0.0000,0.0000,0.0000,0.000,0.000,0.000,0.00,0.00,-3.98,55.94,59.92
5926,0.00,0.00,0.00,0.7061,0.7217,0.2563,64.817,3.223,-19.366,-46.01,80.63,0.7324,-0.6565,-0.3318,-17.234,-12.153,13.268,-63.03,-112.03,0.0000,0.0000,0.0000,0.000,0.000,0.000,0.00,0.00,-3.90,56.14,60.04
5940,0.00,0.00,0.00,0.7463,0.6562,0.1570,-35.336,15.514,18.954,-45.83,80.05,0.7188,-0.6631,-0.3357,-6.654,-19.298,15.207,-62.92,-112.22,0.0000,0.0000,0.0000,0.000,0.000,0.000,0.00,0.00,-3.84,56.32,60.15
5965,0.00,0.00,0.00,0.7991,0.6584,0.0820,-14.267,-2.517,11.122,-45.98,79.77,0.7236,-0.5964,-0.3745,2.613,-0.397,11.482,-62.59,-112.35,0.0000,0.0000,0.0000,0.000,0.000,0.000,0.00,0.00,-3.74,56.49,60.23
5979,0.00,0.00,0.00,0.8208,0.6184,0.0908,2.923,-9.693,11.656,-46.25,79.85,0.7190,-0.5742,-0.4041,6.628,-14.749,15.956,-62.46,-112.52,0.0000,0.0000,0.0000,0.000,0.000,0.000,0.00,0.00,-3.63,56.67,60.30
5993,0.00,0.00,0.00,0.8176,0.6167,0.0457,5.519,-10.471,14.496,-46.53,80.04,0.7373,-0.6091,-0.3845,10.476,-30.962,6.643,-62.55,-112.57,0.0000,0.0000,0.0000,0.000,0.000,0.000,0.00,0.00,-3.50,56.86,60.36
6017,0.00,0.00,0.00,0.7839,0.6318,0.0298,17.534,-9.860,10.237,-46.86,80.61,0.7415,-0.6111,-0.3323,-9.158,-35.283,-16.182,-63.08,-112.90,0.0000,0.0000,0.0000,0.000,0.000,0.000,0.00,0.00,-3.41,57.06,60.46
6031,0.00,0.00,0.00,0.7905,0.7251,0.1855,24.053,-37.051,2.527,-47.37,80.84,0.7922,-0.5862,-0.3152,-22.852,-33.604,-17.510,-63.29,-113.33,0.0000,0.0000,0.0000,0.000,0.000,0.000,0.00,0.00,-3.29,57.28,60.57
6046,0.00,0.00,0.00,0.6941,0.7410,0.0916,8.862,-40.319,15.779,-47.84,81.01,0.7471,-0.5796,-0.3218,-40.456,9.984,-26.029,-62.85,-114.01,0.0000,0.0000,0.0000,0.000,0.000,0.000,0.00,0.00,-3.12,57.51,60.64
6070,0.00,0.00,0.00,0.7312,0.7258,0.1919,-24.695,-85.418,18.282,-49.82,80.30,0.7056,-0.6963,-0.3323,55.377,-50.825,-35.113,-63.67,-112.70,0.0000,0.0000,0.0000,0.000,0.000,0.000,0.00,0.00,-2.89,57.87,60.76
6084,0.00,0.00,0.00,0.7302,0.7078,0.2190,-26.160,-28.517,15.076,-50.11,79.78,0.7075,-0.7048,-0.3140,41.880,-36.382,-19.938,-63.75,-112.15,0.0000,0.0000,0.0000,0.000,0.000,0.000,0.00,0.00,-2.65,58.23,60.88
6099,0.00,0.00,3300.00,0.7344,0.6482,0.1794,-18.771,-15.769,11.290,-50.29,79.41,0.6848,-0.7373,-0.2954,21.331,-30.947,-6.793,-63.73,-111.84,0.0000,0.0000,0.0000,0.000,0.000,0.000,0.00,0.00,-2.41,58.57,60.98
6123,0.00,0.00,0.00,0.7405,0.6538,0.1492,2.832,-28.883,0.389,-50.93,79.44,0.6965,-0.7295,-0.2446,32.003,-29.313,-5.525,-64.00,-111.01,0.0000,0.0000,0.0000,0.000,0.000,0.000,0.00,0.00,-2.17,58.93,61.10
6138,0.00,0.00,0.00,0.7488,0.6716,0.1467,7.122,-28.059,0.863,-51.26,79.50,0.6848,-0.6919,-0.2927,34.537,-40.871,-5.892,-64.15,-110.55,0.0000,0.0000,0.0000,0.000,0.000,0.000,0.00,0.00,-1.93,59.29,61.23
6152,0.00,0.00,0.00,0.7576,0.6899,0.0930,13.229,-31.173,-0.969,-51.62,79.74,0.7029,-0.6709,-0.3071,29.575,-49.344,-3.541,-64.42,-110.22,0.0000,0.0000,0.0000,0.000,0.000,0.000,0.00,0.00,-1.70,59.65,61.36
6177,3300.00,3300.00,3300.00,0.7483,0.6926,0.0488,8.313,-28.181,-3.595,-52.20,80.07,0.7078,-0.6333,-0.2947,21.590,-45.726,-5.190,-65.14,-109.80,0.0000,0.0000,0.0000,0.000,0.000,0.000,0.00,0.00,-1.50,60.03,61.53
6191,165.20,141.83,0.00,0.7478,0.6804,0.0713,-4.344,-24.227,0.496,-52.45,80.08,0.7151,-0.6145,-0.3264,21.392,-52.382,-8.655,-65.48,-109.66,0.0000,0.0000,0.0000,0.000,0.000,0.000,0.00,0.00,-1.32,60.40,61.72
6215,0.00,399.71,3300.00,0.7651,0.6582,0.0598,-8.802,-24.807,5.092,-52.98,79.97,0.7339,-0.6106,-0.3643,1.529,-48.626,-6.335,-66.26,-109.85,0.0000,0.0000,0.0000,0.000,0.000,0.000,0.00,0.00,-1.17,60.78,61.94
6229,3300.00,3300.00,3300.00,0.7781,0.6570,0.0525,-9.153,-25.067,3.580,-53.26,79.95,0.7468,-0.6030,-0.3772,-6.318,-43.756,-5.754,-66.47,-110.18,0.0000,0.0000,0.0000,0.000,0.000,0.000,0.00,0.00,-1.02,61.15,62.17
6254,0.00,0.00,0.00,0.7681,0.6863,0.0449,-2.298,-19.402,3.779,-53.63,80.02,0.7488,-0.6257,-0.3704,-13.936,-39.665,-6.457,-67.01,-110.73,0.0000,0.0000,0.0000,0.000,0.000,0.000,0.00,0.00,-0.90,61.52,62.42
6268,0.00,0.00,2644.03,0.7585,0.6892,0.0732,-0.130,-18.502,2.359,-53.76,80.10,0.7527,-0.6687,-0.3345,-21.921,-36.626,-1.678,-67.08,-111.15,0.0000,0.0000,0.0000,0.000,0.000,0.000,0.00,0.00,-0.78,61.87,62.65
6282,0.00,0.00,3300.00,0.7554,0.6726,0.0566,-1.764,-16.883,0.878,-53.89,80.17,0.7307,-0.7014,-0.3306,-21.539,-31.191,1.207,-67.04,-111.53,0.0000,0.0000,0.0000,0.000,0.000,0.000,0.00,0.00,-0.66,62.21,62.87
6307,153.92,0.00,0.00,0.7466,0.6836,0.0933,1.717,-10.089,-2.038,-54.00,80.26,0.6973,-0.6758,-0.3572,-7.402,-27.619,5.757,-67.21,-111.84,0.0000,0.0000,0.0000,0.000,0.000,0.000,0.00,0.00,-0.55,62.54,63.08
6321,0.00,0.00,0.00,0.7534,0.6558,0.0754,0.908,-8.883,-2.863,-54.02,80.33,0.6929,-0.6697,-0.3650,-6.791,-32.596,6.154,-67.17,-112.07,0.0000,0.0000,0.0000,0.000,0.000,0.000,0.00,0.00,-0.44,62.84,63.28
6336,0.00,0.00,0.00,0.7607,0.6436,0.0779,1.641,-6.838,-3.015,-54.02,80.41,0.6941,-0.6541,-0.3472,-2.028,-29.817,2.734,-67.11,-112.21,0.0000,0.0000,0.0000,0.000,0.000,0.000,0.00,0.00,-0.34,63.12,63.45
6360,3300.00,3300.00,0.00,0.7488,0.6670,0.0598,6.160,-1.815,-3.886,-53.95,80.65,0.6885,-0.6665,-0.3625,5.606,-20.321,-3.678,-67.10,-112.20,0.0000,0.0000,0.0000,0.000,0.000,0.000,0.00,0.00,-0.24,63.37,63.62
6374,877.58,249.01,0.00,0.7480,0.6733,0.0659,10.374,-6.777,-4.603,-53.92,80.87,0.6895,-0.6387,-0.3821,6.186,-15.787,-3.709,-66.83,-112.29,0.0000,0.0000,0.0000,0.000,0.000,0.000,0.00,0.00,-0.14,63.61,63.75
6389,0.00,0.00,0.00,0.7549,0.6743,0.0398,7.046,-6.410,-3.580,-53.90,81.08,0.7129,-0.6099,-0.3691,0.812,-17.680,-4.197,-66.65,-112.46,0.0000,0.0000,0.0000,0.000,0.000,0.000,0.00,0.00,-0.03,63.83,63.86
6413,3300.00,3300.00,2748.79,0.7468,0.6851,0.0522,1.534,-8.746,-2.634,-53.98,81.21,0.6963,-0.6279,-0.3877,-2.135,-11.634,-1.266,-66.46,-112.69,0.0000,0.0000,0.0000,0.000,0.000,0.000,0.00,0.00,0.08,64.04,63.95
6427,3300.00,3300.00,0.00,0.7471,0.6743,0.0398,-1.657,-4.746,0.359,-53.92,81.30,0.7205,-0.5964,-0.4111,-1.326,-11.481,-0.838,-66.19,-112.95,0.0000,0.0000,0.0000,0.000,0.000,0.000,0.00,0.00,0.21,64.23,64.02
6452,0.00,0.00,0.00,0.7532,0.6443,0.0042,-5.122,-12.334,2.618,-54.13,81.34,0.7283,-0.6130,-0.4175,-1.692,-11.649,-4.319,-66.03,-113.22,0.0000,0.0000,0.0000,0.000,0.000,0.000,0.00,0.00,0.35,64.42,64.07
6466,182.93,0.00,3212.16,0.7761,0.6582,0.0142,-1.199,-17.601,-1.000,-54.29,81.47,0.7332,-0.6375,-0.3984,-3.188,-14.520,-3.815,-65.80,-113.44,0.0000,0.0000,0.0000,0.000,0.000,0.000,0.00,0.00,0.51,64.61,64.10
6480,3300.00,3300.00,3300.00,0.7673,0.6594,0.0234,2.389,-9.998,-2.252,-54.33,81.63,0.7256,-0.6292,-0.3982,-2.471,-12.107,-3.113,-65.54,-113.65,0.0000,0.0000,0.0000,0.000,0.000,0.000,0.00,0.00,0.68,64.78,64.11
6505,0.00,0.00,0.00,0.7590,0.6567,0.0393,3.000,-11.189,-1.122,-54.49,81.81,0.7153,-0.6206,-0.4016,-5.830,-10.596,-3.159,-65.36,-113.97,0.0000,0.0000,0.0000,0.000,0.000,0.000,0.00,0.00,0.86,64.96,64.10
6519,0.00,0.00,0.00,0.7454,0.6628,0.0330,5.091,-11.128,-1.855,-54.52,81.98,0.7053,-0.6497,-0.3911,-5.875,-9.313,-1.922,-65.05,-114.20,0.0000,0.0000,0.0000,0.000,0.000,0.000,0.00,0.00,1.05,65.13,64.08
6534,0.00,0.00,0.00,0.7617,0.6841,0.0500,1.137,-8.288,-1.305,-54.51,82.08,0.7104,-0.6526,-0.3796,-4.456,-5.909,-0.289,-64.69,-114.38,0.0000,0.0000,0.0000,0.000,0.000,0.000,0.00,0.00,1.25,65.28,64.03
6558,3300.00,2078.31,0.00,0.7424,0.6753,0.0737,2.908,-5.250,-2.038,-54.50,82.18,0.6934,-0.6616,-0.3735,0.735,1.053,-3.419,-64.22,-114.46,0.0000,0.0000,0.0000,0.000,0.000,0.000,0.00,0.00,1.47,65.43,63.95
6572,0.00,0.00,0.00,0.7393,0.6638,0.0852,2.038,-10.181,-3.351,-54.51,82.22,0.6750,-0.6768,-0.3787,9.117,4.900,-4.029,-63.69,-114.43,0.0000,0.0000,0.0000,0.000,0.000,0.000,0.00,0.00,1.72,65.56,63.84
6587,0.00,0.00,0.00,0.7292,0.6333,0.0867,7.794,-15.265,-6.588,-54.60,82.33,0.6687,-0.6782,-0.3843,15.315,2.793,-5.052,-63.19,-114.32,0.0000,0.0000,0.0000,0.000,0.000,0.000,0.00,0.00,1.98,65.69,63.71
6611,3300.00,3300.00,1400.59,0.7632,0.6550,0.0186,3.443,-13.494,-8.053,-54.82,82.53,0.6873,-0.6338,-0.3801,14.399,0.564,-1.724,-62.77,-114.11,0.0000,0.0000,0.0000,0.000,0.000,0.000,0.00,0.00,2.28,65.83,63.55
6625,3300.00,3300.00,0.00,0.7437,0.6748,-0.0002,11.611,-6.166,-8.450,-54.77,82.84,0.7119,-0.6064,-0.3860,6.842,0.809,-1.602,-62.40,-114.18,0.0000,0.0000,0.0000,0.000,0.000,0.000,0.00,0.00,2.57,65.95,63.38
6650,0.00,0.00,2617.44,0.7451,0.6917,-0.0449,9.473,-3.280,-12.511,-54.69,83.29,0.7529,-0.5906,-0.3796,-0.181,2.076,-5.953,-62.04,-114.36,0.0000,0.0000,0.0000,0.000,0.000,0.000,0.00,0.00,2.87,66.06,63.19
6664,3300.00,3300.00,3300.00,0.7568,0.6833,-0.0095,5.122,-3.906,-10.084,-54.61,83.51,0.7561,-0.5981,-0.4236,3.148,1.557,-7.312,-61.70,-114.53,0.0000,0.0000,0.0000,0.000,0.000,0.000,0.00,0.00,3.16,66.16,63.00
6688,0.00,0.00,0.00,0.7800,0.6780,0.0667,0.252,-5.723,-4.023,-54.63,83.53,0.7163,-0.6416,-0.4556,-4.700,5.618,3.925,-61.17,-114.86,0.0000,0.0000,0.0000,0.000,0.000,0.000,0.00,0.00,3.47,66.25,62.78
6702,0.00,0.00,822.78,0.7664,0.6587,0.0869,-7.535,-9.647,-0.695,-54.66,83.41,0.7080,-0.6641,-0.4287,-7.127,6.900,5.650,-60.69,-115.12,0.0000,0.0000,0.0000,0.000,0.000,0.000,0.00,0.00,3.79,66.33,62.54
6717,425.49,154.73,3300.00,0.7703,0.6526,0.0698,-11.733,-10.868,0.114,-54.71,83.25,0.6760,-0.6970,-0.3835,-2.929,8.366,5.604,-60.17,-115.23,0.0000,0.0000,0.0000,0.000,0.000,0.000,0.00,0.00,4.14,66.42,62.28
6741,3300.00,3300.00,37.88,0.7371,0.6521,0.0483,-8.619,-7.189,-1.229,-54.75,83.09,0.6746,-0.6694,-0.3564,2.598,3.022,3.055,-59.72,-115.23,0.0000,0.0000,0.0000,0.000,0.000,0.000,0.00,0.00,4.49,66.50,62.01
6756,1462.64,444.03,0.00,0.7327,0.7026,0.1272,5.870,-3.723,-5.321,-54.62,83.11,0.6765,-0.6675,-0.3481,2.506,3.984,-0.014,-59.31,-115.24,0.0000,0.0000,0.0000,0.000,0.000,0.000,0.00,0.00,4.83,66.57,61.73
6770,0.00,0.00,3300.00,0.7275,0.6926,0.0325,2.985,0.888,-6.664,-54.45,83.24,0.6809,-0.6526,-0.3391,0.720,4.549,-1.037,-58.92,-115.27,0.0000,0.0000,0.0000,0.000,0.000,0.000,0.00,0.00,5.17,66.62,61.44
6794,3300.00,3300.00,3300.00,0.7297,0.6907,0.0454,0.267,2.185,-6.084,-54.24,83.30,0.6899,-0.6409,-0.3616,0.369,2.809,-0.655,-58.54,-115.35,0.0000,0.0000,0.0000,0.000,0.000,0.000,0.00,0.00,5.50,66.65,61.15
6809,3300.00,3300.00,2801.17,0.7334,0.6953,0.0562,-2.222,1.559,-5.015,-54.06,83.31,0.6943,-0.6431,-0.3811,1.041,3.618,-1.266,-58.17,-115.44,0.0000,0.0000,0.0000,0.000,0.000,0.000,0.00,0.00,5.81,66.66,60.85
6823,3300.00,2180.66,0.00,0.7383,0.6890,0.0581,-2.741,3.712,-4.420,-53.86,83.31,0.6897,-0.6680,-0.3677,-0.791,4.809,-0.518,-57.78,-115.52,0.0000,0.0000,0.0000,0.000,0.000,0.000,0.00,0.00,6.12,66.67,60.54
6848,3300.00,3300.00,3300.00,0.7388,0.6924,0.0457,-1.153,6.796,-6.221,-53.56,83.34,0.6965,-0.6799,-0.3594,3.819,4.916,0.291,-57.35,-115.47,0.0000,0.0000,0.0000,0.000,0.000,0.000,0.00,0.00,6.42,66.65,60.23
6862,3300.00,3300.00,3300.00,0.7385,0.6990,0.0217,-0.741,7.162,-7.916,-53.32,83.43,0.7173,-0.6472,-0.3669,4.613,4.503,0.795,-57.02,-115.49,0.0000,0.0000,0.0000,0.000,0.000,0.000,0.00,0.00,6.70,66.61,59.91
6876,3300.00,3300.00,3300.00,0.7344,0.6960,0.0190,-1.244,6.460,-8.573,-53.09,83.51,0.7300,-0.6235,-0.3704,3.178,3.954,-0.548,-56.73,-115.55,0.0000,0.0000,0.0000,0.000,0.000,0.000,0.00,0.00,6.96,66.56,59.60
6901,620.51,621.32,3300.00,0.7476,0.6855,0.0088,-5.351,6.292,-9.534,-52.83,83.50,0.7217,-0.6282,-0.3911,3.987,5.175,-0.258,-56.36,-115.58,0.0000,0.0000,0.0000,0.000,0.000,0.000,0.00,0.00,7.22,66.50,59.28
6915,3300.00,3300.00,3300.00,0.7434,0.6865,0.0198,-7.977,5.132,-9.137,-52.64,83.48,0.7292,-0.6179,-0.4055,5.193,5.694,1.788,-56.04,-115.66,0.0000,0.0000,0.0000,0.000,0.000,0.000,0.00,0.00,7.46,66.43,58.96
6939,2741.54,2204.84,0.00,0.7544,0.6643,0.0239,-2.909,4.140,-8.389,-52.46,83.50,0.7188,-0.6292,-0.3928,0.354,8.106,4.093,-55.61,-115.78,0.0000,0.0000,0.0000,0.000,0.000,0.000,0.00,0.00,7.71,66.35,58.64
6954,0.00,0.00,0.00,0.7520,0.6594,-0.0024,-0.038,7.605,-7.504,-52.28,83.64,0.7236,-0.6428,-0.3901,4.399,6.671,1.894,-55.28,-115.83,0.0000,0.0000,0.0000,0.000,0.000,0.000,0.00,0.00,7.95,66.26,58.31
6968,0.00,0.00,3300.00,0.7380,0.6719,0.0125,-0.817,9.223,-8.496,-52.06,83.73,0.7087,-0.6436,-0.3701,7.224,7.251,-0.472,-54.95,-115.81,0.0000,0.0000,0.0000,0.000,0.000,0.000,0.00,0.00,8.18,66.16,57.98
6993,3300.00,3300.00,3256.48,0.7383,0.6870,0.0029,-1.519,9.468,-9.580,-51.73,83.81,0.7122,-0.6301,-0.3840,13.086,11.206,-0.594,-54.46,-115.61,0.0000,0.0000,0.0000,0.000,0.000,0.000,0.00,0.00,8.41,66.05,57.65
7007,3300.00,3300.00,0.00,0.7456,0.6587,0.0037,-1.336,8.414,-8.237,-51.55,83.91,0.7258,-0.6138,-0.3909,12.873,9.068,-0.838,-54.14,-115.56,0.0000,0.0000,0.0000,0.000,0.000,0.000,0.00,0.00,8.63,65.93,57.31
7031,3300.00,3300.00,3300.00,0.7446,0.6750,0.0237,5.244,10.949,-9.641,-51.21,84.12,0.7036,-0.6345,-0.3745,9.468,7.496,-0.212,-53.75,-115.43,0.0000,0.0000,0.0000,0.000,0.000,0.000,0.00,0.00,8.83,65.80,56.97
7046,3300.00,3300.00,3300.00,0.7344,0.6946,0.0178,8.725,10.811,-11.809,-50.97,84.33,0.7297,-0.6157,-0.3579,5.468,8.412,0.597,-53.47,-115.45,0.0000,0.0000,0.0000,0.000,0.000,0.000,0.00,0.00,9.03,65.66,56.63
7070,0.00,0.00,0.00,0.7117,0.7334,0.0090,4.053,8.262,-13.657,-50.64,84.53,0.7607,-0.6155,-0.3752,1.651,14.366,-3.373,-52.99,-115.53,0.0000,0.0000,0.0000,0.000,0.000,0.000,0.00,0.00,9.22,65.51,56.29
7084,0.00,0.00,3300.00,0.7166,0.7239,0.0808,-4.222,2.918,-10.053,-50.47,84.45,0.7158,-0.6326,-0.3801,-1.677,17.114,-0.533,-52.57,-115.66,0.0000,0.0000,0.0000,0.000,0.000,0.000,0.00,0.00,9.42,65.35,55.94
7099,3300.00,3300.00,3300.00,0.7300,0.7102,0.1162,-12.985,-0.349,-5.855,-50.38,84.19,0.6841,-0.6555,-0.4011,-1.051,18.442,6.933,-52.10,-115.80,0.0000,0.0000,0.0000,0.000,0.000,0.000,0.00,0.00,9.63,65.20,55.58
7123,3300.00,3300.00,0.00,0.7390,0.6704,0.0996,-27.855,-9.677,0.893,-50.55,83.47,0.6738,-0.6858,-0.3896,0.735,14.091,12.261,-51.53,-115.85,0.0000,0.0000,0.0000,0.000,0.000,0.000,0.00,0.00,9.87,65.08,55.20
7137,278.83,144.25,1460.22,0.7451,0.6636,0.0706,-25.428,-8.120,1.229,-50.62,83.13,0.6726,-0.6938,-0.3650,-4.700,14.320,11.452,-51.11,-115.96,0.0000,0.0000,0.0000,0.000,0.000,0.000,0.00,0.00,10.14,64.96,54.82
7162,3300.00,3300.00,3300.00,0.7429,0.6831,0.0469,-12.115,-0.303,-1.550,-50.56,82.89,0.6838,-0.6758,-0.3264,-1.249,12.396,7.009,-50.64,-115.98,0.0000,0.0000,0.0000,0.000,0.000,0.000,0.00,0.00,10.41,64.85,54.44
7176,3300.00,3300.00,3300.00,0.7292,0.7014,0.0488,-9.000,1.193,-5.702,-50.45,82.83,0.6924,-0.6538,-0.3315,1.835,13.511,4.062,-50.30,-115.98,0.0000,0.0000,0.0000,0.000,0.000,0.000,0.00,0.00,10.68,64.74,54.06
7201,2246.74,2411.14,3300.00,0.7441,0.6938,0.0598,-9.672,4.353,-12.634,-50.28,82.64,0.7017,-0.6777,-0.3513,7.285,15.114,6.612,-49.79,-115.83,0.0000,0.0000,0.0000,0.000,0.000,0.000,0.00,0.00,10.96,64.63,53.67
7215,3300.00,3300.00,3300.00,0.7444,0.6851,0.0620,-10.115,4.384,-13.595,-50.15,82.55,0.7048,-0.6843,-0.3477,10.155,17.022,9.635,-49.40,-115.71,0.0000,0.0000,0.0000,0.000,0.000,0.000,0.00,0.00,11.23,64.51,53.28
7239,2815.68,2112.97,0.00,0.7393,0.6863,0.0598,-12.680,4.048,-19.870,-49.99,82.29,0.7058,-0.6865,-0.3496,11.529,22.290,14.902,-48.73,-115.46,0.0000,0.0000,0.0000,0.000,0.000,0.000,0.00,0.00,11.52,64.39,52.87
7254,0.00,0.00,0.00,0.7463,0.6838,0.0791,-11.061,3.865,-23.351,-49.89,82.16,0.7085,-0.6599,-0.3794,11.896,19.664,15.956,-48.34,-115.38,0.0000,0.0000,0.0000,0.000,0.000,0.000,0.00,0.00,11.81,64.27,52.46
7268,0.00,0.00,3229.08,0.7444,0.6812,0.0518,-11.031,2.720,-22.069,-49.80,82.07,0.7200,-0.6238,-0.4021,19.911,14.839,14.078,-48.05,-115.25,0.0000,0.0000,0.0000,0.000,0.000,0.000,0.00,0.00,12.10,64.16,52.06
7292,3300.00,3300.00,221.61,0.7505,0.6538,0.0098,-14.023,1.193,-16.206,-49.75,81.88,0.7126,-0.6179,-0.4060,17.819,15.801,8.459,-47.59,-114.98,0.0000,0.0000,0.0000,0.000,0.000,0.000,0.00,0.00,12.39,64.05,51.66
7307,1965.49,1797.07,0.00,0.7434,0.6697,-0.0085,-9.565,-2.532,-16.679,-49.75,81.92,0.7236,-0.6177,-0.3809,12.583,15.374,8.230,-47.32,-114.94,0.0000,0.0000,0.0000,0.000,0.000,0.000,0.00,0.00,12.69,63.95,51.26
7331,3300.00,3300.00,3300.00,0.7397,0.6770,0.0386,-6.848,-3.876,-11.641,-49.80,81.85,0.7070,-0.6487,-0.3418,6.812,11.419,4.841,-46.98,-114.83,0.0000,0.0000,0.0000,0.000,0.000,0.000,0.00,0.00,12.98,63.85,50.87
7346,3300.00,3300.00,3300.00,0.7192,0.6907,0.0659,-4.191,-4.364,-9.855,-49.79,81.85,0.6892,-0.6531,-0.3342,9.163,6.916,3.253,-46.80,-114.75,0.0000,0.0000,0.0000,0.000,0.000,0.000,0.00,0.00,13.27,63.77,50.49
7370,0.00,0.00,0.00,0.7002,0.7134,0.0454,-3.611,0.231,-13.183,-49.68,81.85,0.6987,-0.6477,-0.3062,8.735,8.854,3.375,-46.54,-114.55,0.0000,0.0000,0.0000,0.000,0.000,0.000,0.00,0.00,13.55,63.68,50.13
7384,0.00,0.00,2312.01,0.6970,0.7515,0.0845,-2.802,-1.998,-12.802,-49.56,81.85,0.6992,-0.6641,-0.3074,8.674,9.801,2.139,-46.35,-114.43,0.0000,0.0000,0.0000,0.000,0.000,0.000,0.00,0.00,13.82,63.59,49.77
7399,3300.00,3300.00,3300.00,0.7139,0.7410,0.0728,-4.206,-3.326,-13.321,-49.49,81.84,0.7026,-0.6929,-0.2891,14.262,11.022,2.429,-46.13,-114.20,0.0000,0.0000,0.0000,0.000,0.000,0.000,0.00,0.00,14.08,63.50,49.42
7423,3300.00,3300.00,0.00,0.7175,0.7222,0.0854,-9.977,-3.631,-14.328,-49.48,81.63,0.7141,-0.6833,-0.3145,13.835,11.541,5.864,-45.80,-113.87,0.0000,0.0000,0.0000,0.000,0.000,0.000,0.00,0.00,14.34,63.42,49.08
7438,0.00,0.00,0.00,0.7173,0.7175,0.0513,-8.374,1.498,-17.886,-49.37,81.60,0.7063,-0.6758,-0.3069,9.148,9.267,6.612,-45.62,-113.76,0.0000,0.0000,0.0000,0.000,0.000,0.000,0.00,0.00,14.59,63.33,48.75
7452,0.00,0.00,361.03,0.7019,0.7241,0.0645,-7.458,-0.471,-16.603,-49.27,81.56,0.7185,-0.6707,-0.3235,14.094,7.587,4.185,-45.48,-113.60,0.0000,0.0000,0.0000,0.000,0.000,0.000,0.00,0.00,14.82,63.24,48.43
7476,3300.00,3300.00,3300.00,0.7139,0.7102,0.0376,-7.718,-2.578,-14.985,-49.25,81.48,0.7190,-0.6619,-0.3203,16.842,9.038,3.727,-45.24,-113.24,0.0000,0.0000,0.0000,0.000,0.000,0.000,0.00,0.00,15.05,63.16,48.11
7491,3300.00,3300.00,0.00,0.7217,0.7153,0.0337,-9.077,-0.777,-15.672,-49.18,81.47,0.7209,-0.6475,-0.3179,15.102,11.603,5.940,-45.08,-113.09,0.0000,0.0000,0.0000,0.000,0.000,0.000,0.00,0.00,15.27,63.08,47.81
7515,3239.56,3300.00,3300.00,0.7104,0.7380,0.0354,-4.649,5.926,-17.992,-48.93,81.47,0.7117,-0.6775,-0.2981,13.575,15.038,5.284,-44.69,-112.78,0.0000,0.0000,0.0000,0.000,0.000,0.000,0.00,0.00,15.49,62.99,47.50
7529,3300.00,3300.00,3300.00,0.7229,0.7463,0.0527,-0.451,11.407,-18.634,-48.67,81.56,0.7073,-0.6895,-0.2888,16.506,11.419,2.963,-44.51,-112.54,0.0000,0.0000,0.0000,0.000,0.000,0.000,0.00,0.00,15.69,62.89,47.20
7554,0.00,0.00,0.00,0.6870,0.7444,0.0742,-0.466,11.025,-18.924,-48.29,81.60,0.7156,-0.6746,-0.3015,8.766,14.244,6.948,-44.16,-112.36,0.0000,0.0000,0.0000,0.000,0.000,0.000,0.00,0.00,15.87,62.76,46.89
7568,0.00,0.00,0.00,0.6853,0.7432,0.0957,-1.107,9.254,-19.076,-48.04,81.61,0.7244,-0.7007,-0.2932,5.697,16.167,10.291,-43.92,-112.29,0.0000,0.0000,0.0000,0.000,0.000,0.000,0.00,0.00,16.03,62.63,46.59
7582,3116.26,3300.00,3300.00,0.6982,0.7534,0.0986,-4.786,6.109,-18.603,-47.85,81.56,0.7100,-0.6965,-0.2666,4.659,17.236,13.665,-43.67,-112.20,0.0000,0.0000,0.0000,0.000,0.000,0.000,0.00,0.00,16.19,62.49,46.30
7607,3300.00,3300.00,1339.34,0.6746,0.7615,0.0923,-7.504,10.430,-22.725,-47.47,81.41,0.6997,-0.7263,-0.2449,9.270,18.778,16.520,-43.20,-111.90,0.0000,0.0000,0.0000,0.000,0.000,0.000,0.00,0.00,16.35,62.34,45.99
7621,0.00,486.74,0.00,0.6621,0.7483,0.0696,-3.382,13.071,-27.794,-47.16,81.43,0.6987,-0.7302,-0.2251,17.880,20.610,16.429,-42.89,-111.56,0.0000,0.0000,0.0000,0.000,0.000,0.000,0.00,0.00,16.49,62.17,45.68
7646,3300.00,3300.00,3300.00,0.6536,0.7642,0.0742,-1.519,20.689,-35.015,-46.53,81.45,0.7019,-0.7063,-0.2283,25.132,23.190,14.459,-42.35,-110.88,0.0000,0.0000,0.0000,0.000,0.000,0.000,0.00,0.00,16.62,61.98,45.36
7660,3300.00,3300.00,3300.00,0.6621,0.7446,0.0718,-1.336,20.628,-36.908,-46.14,81.49,0.7070,-0.6938,-0.2546,28.644,24.809,13.711,-42.03,-110.47,0.0000,0.0000,0.0000,0.000,0.000,0.000,0.00,0.00,16.73,61.77,45.03
7684,0.00,0.00,0.00,0.6575,0.7546,0.0798,-2.512,17.605,-32.130,-45.61,81.48,0.7168,-0.6636,-0.2886,19.163,26.030,15.971,-41.45,-110.07,0.0000,0.0000,0.0000,0.000,0.000,0.000,0.00,0.00,16.84,61.53,44.69
7699,2823.74,3300.00,3300.00,0.6760,0.7656,0.0898,-3.275,16.735,-29.443,-45.29,81.47,0.7197,-0.6616,-0.2834,11.025,22.656,19.772,-41.21,-109.98,0.0000,0.0000,0.0000,0.000,0.000,0.000,0.00,0.00,16.94,61.29,44.36
7723,1338.53,2447.40,0.00,0.6770,0.7717,0.0972,-10.313,10.781,-22.527,-44.95,81.25,0.6985,-0.6816,-0.2773,1.377,20.244,23.284,-40.77,-109.99,0.0000,0.0000,0.0000,0.000,0.000,0.000,0.00,0.00,17.03,61.05,44.01
7737,0.00,0.00,0.00,0.6826,0.7737,0.0818,-14.298,12.735,-19.809,-44.70,81.11,0.6960,-0.7046,-0.2783,-2.608,21.633,23.925,-40.50,-110.06,0.0000,0.0000,0.0000,0.000,0.000,0.000,0.00,0.00,17.12,60.80,43.68
7762,3300.00,3300.00,3300.00,0.6597,0.7673,0.1035,-5.764,17.193,-21.153,-44.20,80.99,0.7004,-0.7310,-0.2471,-2.791,24.763,20.337,-39.94,-110.09,0.0000,0.0000,0.0000,0.000,0.000,0.000,0.00,0.00,17.21,60.54,43.32
7776,3300.00,3300.00,3300.00,0.6663,0.7505,0.0911,-6.954,19.911,-24.008,-43.86,80.94,0.7039,-0.7390,-0.2305,-8.333,28.870,25.757,-39.59,-110.16,0.0000,0.0000,0.0000,0.000,0.000,0.000,0.00,0.00,17.30,60.27,42.97
7801,2146.01,3300.00,3300.00,0.6538,0.7615,0.1182,-2.084,25.391,-32.115,-43.18,80.89,0.6824,-0.7375,-0.2390,7.850,28.366,26.078,-38.94,-109.92,0.0000,0.0000,0.0000,0.000,0.000,0.000,0.00,0.00,17.37,59.97,42.60
7815,3300.00,3300.00,3300.00,0.6521,0.7854,0.1360,-6.970,17.010,-31.092,-42.87,80.78,0.6729,-0.7302,-0.2175,9.835,27.343,28.505,-38.61,-109.72,0.0000,0.0000,0.0000,0.000,0.000,0.000,0.00,0.00,17.44,59.67,42.23
7840,3300.00,3300.00,3300.00,0.6619,0.7683,0.1526,-10.786,13.834,-32.053,-42.48,80.48,0.6428,-0.7488,-0.2578,16.751,26.931,25.528,-37.97,-109.30,0.0000,0.0000,0.0000,0.000,0.000,0.000,0.00,0.00,17.53,59.36,41.84
7854,1361.10,3300.00,0.00,0.6672,0.7729,0.1448,-11.672,15.483,-33.382,-42.22,80.30,0.6526,-0.7205,-0.2761,23.361,22.030,25.604,-37.71,-109.01,0.0000,0.0000,0.0000,0.000,0.000,0.000,0.00,0.00,17.60,59.06,41.46
7878,3300.00,3300.00,3300.00,0.6851,0.7524,0.1177,-18.176,11.559,-28.282,-41.94,79.88,0.6572,-0.7083,-0.2893,26.796,22.473,22.429,-37.22,-108.43,0.0000,0.0000,0.0000,0.000,0.000,0.000,0.00,0.00,17.69,58.76,41.07
7893,3300.00,3300.00,3300.00,0.6870,0.7615,0.1189,-20.145,11.483,-27.458,-41.77,79.62,0.6619,-0.7346,-0.2644,25.315,21.603,23.833,-36.98,-108.10,0.0000,0.0000,0.0000,0.000,0.000,0.000,0.00,0.00,17.78,58.47,40.69
7917,2992.16,3300.00,3300.00,0.6504,0.7590,0.1011,-7.779,18.781,-23.595,-41.29,79.49,0.6707,-0.7295,-0.2253,18.048,23.175,21.940,-36.51,-107.65,0.0000,0.0000,0.0000,0.000,0.000,0.000,0.00,0.00,17.86,58.17,40.31
7931,3300.00,3300.00,3300.00,0.6172,0.7979,0.0859,-0.634,20.185,-25.718,-40.94,79.57,0.6716,-0.7458,-0.1799,14.277,28.305,20.444,-36.21,-107.37,0.0000,0.0000,0.0000,0.000,0.000,0.000,0.00,0.00,17.93,57.86,39.93
7956,3300.00,3300.00,1278.90,0.5867,0.8113,0.1143,6.053,20.170,-36.267,-40.34,79.76,0.6919,-0.7258,-0.1865,11.606,35.557,19.742,-35.48,-107.03,0.0000,0.0000,0.0000,0.000,0.000,0.000,0.00,0.00,18.00,57.53,39.53
7970,0.00,3300.00,0.00,0.6045,0.8311,0.0898,-1.794,17.010,-38.252,-40.02,79.82,0.6880,-0.7461,-0.1719,11.224,33.572,21.528,-35.14,-106.79,0.0000,0.0000,0.0000,0.000,0.000,0.000,0.00,0.00,18.07,57.20,39.13
7995,3300.00,3300.00,3300.00,0.6318,0.8027,0.1340,-4.084,12.338,-34.038,-39.67,79.73,0.6826,-0.7307,-0.2468,8.415,34.366,26.368,-34.44,-106.63,0.0000,0.0000,0.0000,0.000,0.000,0.000,0.00,0.00,18.16,56.87,38.71
8009,3300.00,3300.00,3300.00,0.6650,0.7825,0.1431,-13.901,6.277,-29.092,-39.59,79.54,0.6855,-0.7014,-0.2717,12.216,33.022,26.581,-34.14,-106.55,0.0000,0.0000,0.0000,0.000,0.000,0.000,0.00,0.00,18.26,56.56,38.30
8034,2109.74,3300.00,2519.12,0.6729,0.7869,0.1145,-17.535,9.223,-25.076,-39.38,79.16,0.6589,-0.7327,-0.2615,8.812,32.656,28.230,-33.48,-106.40,0.0000,0.0000,0.0000,0.000,0.000,0.000,0.00,0.00,18.38,56.26,37.87
8048,3300.00,3300.00,3300.00,0.6584,0.7764,0.1099,-8.008,12.521,-26.160,-39.22,79.10,0.6692,-0.7451,-0.2288,5.025,33.587,26.856,-33.15,-106.34,0.0000,0.0000,0.0000,0.000,0.000,0.000,0.00,0.00,18.51,55.96,37.45
8072,3300.00,3300.00,0.00,0.6294,0.8281,0.1121,1.427,24.307,-26.069,-38.59,79.20,0.6782,-0.7581,-0.1807,-2.059,29.450,25.650,-32.60,-106.33,0.0000,0.0000,0.0000,0.000,0.000,0.000,0.00,0.00,18.62,55.64,37.02
8087,0.00,3300.00,0.00,0.6265,0.8367,0.1211,-1.748,22.689,-23.718,-38.23,79.23,0.6711,-0.7505,-0.1746,-5.891,29.343,26.093,-32.36,-106.35,0.0000,0.0000,0.0000,0.000,0.000,0.000,0.00,0.00,18.72,55.32,36.60
8111,3300.00,3300.00,3300.00,0.6055,0.8247,0.1414,-3.626,25.636,-25.565,-37.57,79.16,0.6648,-0.7568,-0.1584,-4.700,23.068,26.887,-31.97,-106.37,0.0000,0.0000,0.0000,0.000,0.000,0.000,0.00,0.00,18.79,54.98,36.19
8125,3300.00,3300.00,3300.00,0.5935,0.8127,0.1589,-2.145,21.605,-27.260,-37.23,79.13,0.6643,-0.7720,-0.1921,-1.768,23.709,26.383,-31.80,-106.35,0.0000,0.0000,0.0000,0.000,0.000,0.000,0.00,0.00,18.85,54.63,35.79
8150,3300.00,3300.00,3300.00,0.6177,0.8135,0.1533,11.168,25.758,-32.084,-36.60,79.40,0.6406,-0.8103,-0.1943,3.529,26.763,26.032,-31.27,-106.20,0.0000,0.0000,0.0000,0.000,0.000,0.000,0.00,0.00,18.89,54.27,35.38
8164,3300.00,3300.00,3300.00,0.6006,0.8328,0.1526,9.916,24.796,-35.794,-36.23,79.54,0.6450,-0.7935,-0.1694,4.140,28.610,28.062,-31.01,-106.06,0.0000,0.0000,0.0000,0.000,0.000,0.000,0.00,0.00,18.92,53.90,34.98
8189,3300.00,3300.00,2094.43,0.5657,0.8618,0.1851,0.908,18.888,-35.321,-35.70,79.53,0.6399,-0.7651,-0.1619,12.094,27.007,28.001,-30.53,-105.69,0.0000,0.0000,0.0000,0.000,0.000,0.000,0.00,0.00,18.95,53.53,34.58
8203,3300.00,3300.00,0.00,0.5508,0.9070,0.0991,-9.626,16.338,-32.206,-35.38,79.48,0.6284,-0.7488,-0.1343,19.636,26.045,29.589,-30.35,-105.31,0.0000,0.0000,0.0000,0.000,0.000,0.000,0.00,0.00,18.96,53.15,34.19
8228,3300.00,3300.00,3300.00,0.5432,0.8442,0.2053,-13.550,10.552,-37.443,-35.06,79.09,0.6162,-0.7920,-0.1382,20.598,30.473,35.665,-29.76,-104.70,0.0000,0.0000,0.0000,0.000,0.000,0.000,0.00,0.00,19.00,52.79,33.79
8242,3300.00,3300.00,3300.00,0.5500,0.8569,0.1692,-7.870,7.086,-39.229,-34.91,78.98,0.6152,-0.8052,-0.1475,22.033,32.778,34.139,-29.44,-104.31,0.0000,0.0000,0.0000,0.000,0.000,0.000,0.00,0.00,19.04,52.43,33.40
8266,3300.00,3300.00,3300.00,0.5676,0.8401,0.1802,-22.145,4.246,-31.931,-34.77,78.42,0.6050,-0.7871,-0.1628,8.964,37.007,33.956,-28.70,-104.04,0.0000,0.0000,0.0000,0.000,0.000,0.000,0.00,0.00,19.12,52.09,32.98
8281,3300.00,3300.00,3300.00,0.5647,0.8420,0.1816,-30.145,6.888,-28.221,-34.65,77.99,0.5977,-0.7969,-0.1572,16.262,32.717,29.665,-28.40,-103.76,0.0000,0.0000,0.0000,0.000,0.000,0.000,0.00,0.00,19.21,51.77,32.56
8305,3300.00,3300.00,3300.00,0.5942,0.8535,0.1851,-31.641,10.659,-26.496,-34.38,77.23,0.6008,-0.7859,-0.1729,18.491,34.519,26.032,-27.74,-103.29,0.0000,0.0000,0.0000,0.000,0.000,0.000,0.00,0.00,19.32,51.45,32.13
8319,3300.00,3300.00,2390.18,0.5835,0.8501,0.1824,-28.848,13.330,-24.359,-34.19,76.84,0.6165,-0.7959,-0.1648,17.315,37.190,26.948,-27.41,-103.01,0.0000,0.0000,0.0000,0.000,0.000,0.000,0.00,0.00,19.43,51.14,31.71
8344,3300.00,3300.00,3300.00,0.5657,0.8167,0.1660,-28.267,18.506,-26.191,-33.74,76.19,0.6250,-0.8049,-0.1101,23.453,32.091,27.879,-26.84,-102.34,0.0000,0.0000,0.0000,0.000,0.000,0.000,0.00,0.00,19.54,50.82,31.28
8358,3300.00,3300.00,3300.00,0.5317,0.8496,0.1716,-16.588,17.193,-30.435,-33.46,76.01,0.6348,-0.8218,-0.0779,30.277,32.167,22.841,-26.60,-101.78,0.0000,0.0000,0.0000,0.000,0.000,0.000,0.00,0.00,19.64,50.50,30.86
8383,3300.00,3300.00,3300.00,0.4641,0.9070,0.2217,-12.206,22.888,-37.977,-32.77,75.72,0.5928,-0.8220,-0.0679,33.254,33.694,23.421,-25.98,-100.84,0.0000,0.0000,0.0000,0.000,0.000,0.000,0.00,0.00,19.73,50.16,30.43
8397,3300.00,3300.00,3300.00,0.5100,0.8723,0.2451,-10.084,6.949,-46.893,-32.60,75.55,0.5911,-0.8127,-0.0916,18.919,19.145,38.872,-25.91,-100.49,0.0000,0.0000,0.0000,0.000,0.000,0.000,0.00,0.00,19.81,49.83,30.02
8421,812.31,1959.85,0.00,0.5327,0.8342,0.2524,-21.351,8.643,-56.802,-32.37,74.99,0.5461,-0.8184,-0.0662,37.010,46.702,36.169,-24.94,-99.49,0.0000,0.0000,0.0000,0.000,0.000,0.000,0.00,0.00,19.93,49.50,29.57
8436,0.00,363.44,0.00,0.5234,0.8577,0.2620,-27.657,13.346,-55.107,-32.15,74.57,0.5396,-0.8914,-0.1208,35.377,55.679,34.566,-24.29,-98.96,0.0000,0.0000,0.0000,0.000,0.000,0.000,0.00,0.00,20.08,49.19,29.11
8450,3300.00,3300.00,782.49,0.5518,0.8489,0.2708,-29.596,14.582,-51.183,-31.93,74.10,0.5554,-0.8975,-0.1143,40.399,46.625,30.246,-23.78,-98.36,0.0000,0.0000,0.0000,0.000,0.000,0.000,0.00,0.00,20.23,48.88,28.65
8474,3300.00,3300.00,2813.26,0.5483,0.8137,0.2544,-3.596,19.452,-51.061,-31.48,73.99,0.5679,-0.8657,-0.1204,59.285,40.809,15.330,-22.98,-96.93,0.0000,0.0000,0.0000,0.000,0.000,0.000,0.00,0.00,20.40,48.56,28.16
8489,3300.00,3300.00,1259.56,0.5710,0.7993,0.2329,-2.222,18.765,-55.657,-31.28,73.95,0.5762,-0.8491,-0.0850,46.781,43.709,14.520,-22.59,-96.24,0.0000,0.0000,0.0000,0.000,0.000,0.000,0.00,0.00,20.57,48.25,27.68
8513,3300.00,3300.00,3300.00,0.5859,0.8381,0.2273,-3.397,30.781,-59.183,-30.59,73.89,0.5732,-0.8176,-0.1096,61.422,22.977,15.635,-22.28,-94.79,0.0000,0.0000,0.0000,0.000,0.000,0.000,0.00,0.00,20.70,47.91,27.21
8528,3300.00,3300.00,3300.00,0.5244,0.8997,0.1663,-1.672,43.895,-59.321,-29.96,73.98,0.5698,-0.7820,-0.0388,52.170,36.641,18.551,-22.04,-94.03,0.0000,0.0000,0.0000,0.000,0.000,0.000,0.00,0.00,20.79,47.55,26.76
8552,1607.69,1281.32,0.00,0.4714,0.9177,0.1665,11.672,46.659,-54.298,-28.78,74.37,0.6104,-0.8381,-0.0073,46.293,28.396,21.009,-21.64,-92.84,0.0000,0.0000,0.0000,0.000,0.000,0.000,0.00,0.00,20.83,47.13,26.31
8566,3300.00,3300.00,3266.96,0.4443,0.8916,0.1768,15.336,42.979,-59.428,-28.12,74.68,0.6306,-0.8599,0.0325,53.514,31.908,18.062,-21.49,-91.99,0.0000,0.0000,0.0000,0.000,0.000,0.000,0.00,0.00,20.82,46.70,25.88
8591,3300.00,3300.00,3019.56,0.4097,0.9377,0.2107,17.641,34.933,-69.290,-27.18,75.15,0.6235,-0.7581,0.0586,63.224,31.160,21.757,-21.10,-90.35,0.0000,0.0000,0.0000,0.000,0.000,0.000,0.00,0.00,20.78,46.23,25.45
8605,3300.00,3300.00,0.00,0.3767,0.9949,0.2065,7.626,35.712,-65.886,-26.55,75.32,0.6016,-0.7441,0.0242,56.980,37.847,26.520,-20.92,-89.51,0.0000,0.0000,0.0000,0.000,0.000,0.000,0.00,0.00,20.71,45.75,25.04
8630,3300.00,3300.00,3300.00,0.3962,0.9922,0.2124,-18.328,23.498,-54.985,-25.88,74.93,0.5830,-0.7854,0.0359,35.773,42.091,34.795,-20.23,-88.61,0.0000,0.0000,0.0000,0.000,0.000,0.000,0.00,0.00,20.64,45.26,24.62
8644,3300.00,3300.00,3300.00,0.3896,0.9670,0.2354,-28.512,20.002,-52.725,-25.51,74.56,0.5806,-0.8242,0.0396,28.949,46.106,38.429,-19.87,-88.17,0.0000,0.0000,0.0000,0.000,0.000,0.000,0.00,0.00,20.58,44.77,24.19
8668,3300.00,3300.00,814.73,0.3669,0.9084,0.2556,-32.084,18.002,-52.695,-24.99,73.78,0.5330,-0.8281,0.0881,27.728,53.145,43.864,-18.85,-87.42,0.0000,0.0000,0.0000,0.000,0.000,0.000,0.00,0.00,20.56,44.29,23.73
8683,3300.00,3300.00,3300.00,0.3640,0.9045,0.2703,-34.649,20.735,-52.160,-24.62,73.29,0.5078,-0.8416,0.0728,28.735,55.816,47.589,-18.31,-86.97,0.0000,0.0000,0.0000,0.000,0.000,0.000,0.00,0.00,20.55,43.81,23.26
8707,3300.00,3300.00,3300.00,0.4258,0.9072,0.2468,-37.550,19.468,-53.886,-24.15,72.42,0.5051,-0.8027,0.0098,37.773,42.778,42.581,-17.56,-86.11,0.0000,0.0000,0.0000,0.000,0.000,0.000,0.00,0.00,20.56,43.33,22.77
8722,3300.00,3300.00,3300.00,0.4536,0.9309,0.2410,-45.244,23.162,-48.695,-23.84,71.84,0.5066,-0.8237,-0.0325,36.842,42.625,39.375,-17.24,-85.71,0.0000,0.0000,0.0000,0.000,0.000,0.000,0.00,0.00,20.57,42.86,22.29
8746,3300.00,3300.00,3300.00,0.5137,0.9077,0.2280,-32.863,28.307,-43.748,-23.26,71.13,0.5503,-0.8579,0.0269,21.743,47.129,33.620,-16.42,-85.24,0.0000,0.0000,0.0000,0.000,0.000,0.000,0.00,0.00,20.60,42.39,21.79
8760,3300.00,3300.00,3300.00,0.4773,0.9265,0.2441,-25.580,34.765,-46.939,-22.84,70.86,0.5764,-0.8918,0.0242,20.323,49.282,24.902,-16.06,-85.02,0.0000,0.0000,0.0000,0.000,0.000,0.000,0.00,0.00,20.62,41.92,21.29
8785,1237.00,0.00,0.00,0.3950,0.9443,0.2209,-14.588,37.681,-55.870,-21.92,70.63,0.5588,-0.8640,0.0862,41.514,43.480,29.635,-15.35,-84.01,0.0000,0.0000,0.0000,0.000,0.000,0.000,0.00,0.00,20.63,41.42,20.79
8799,3300.00,3300.00,701.10,0.3682,0.9314,0.2202,-28.328,34.613,-69.275,-21.42,70.35,0.5642,-0.8730,0.1272,43.300,47.404,40.001,-15.03,-83.36,0.0000,0.0000,0.0000,0.000,0.000,0.000,0.00,0.00,20.62,40.92,20.29
8824,3300.00,3300.00,260.29,0.3279,0.8906,0.2510,-27.962,37.758,-74.573,-20.48,69.76,0.5444,-0.8882,0.1414,61.636,43.099,40.230,-14.32,-81.83,0.0000,0.0000,0.0000,0.000,0.000,0.000,0.00,0.00,20.60,40.38,19.78
8838,1771.28,606.01,0.00,0.2961,0.9221,0.2766,-24.359,34.750,-81.519,-19.92,69.49,0.5232,-0.8835,0.1560,70.735,41.709,38.612,-14.06,-80.81,0.0000,0.0000,0.0000,0.000,0.000,0.000,0.00,0.00,20.56,39.85,19.29
8862,3300.00,3300.00,3300.00,0.2651,0.9844,0.3306,-26.038,25.330,-83.901,-19.20,68.91,0.4949,-0.8416,0.1262,67.621,46.351,37.574,-13.27,-79.20,0.0000,0.0000,0.0000,0.000,0.000,0.000,0.00,0.00,20.52,39.30,18.78
8877,3300.00,3300.00,3300.00,0.2808,0.9810,0.3340,-40.634,27.071,-81.702,-18.74,68.38,0.4739,-0.8550,0.1230,63.743,52.763,45.207,-12.84,-78.36,0.0000,0.0000,0.0000,0.000,0.000,0.000,0.00,0.00,20.49,38.76,18.27
8901,3300.00,2299.93,0.00,0.2590,0.9734,0.3755,-75.122,23.987,-78.695,-18.07,66.59,0.4473,-0.7925,0.1367,67.025,56.442,59.574,-11.81,-76.78,0.0000,0.0000,0.0000,0.000,0.000,0.000,0.00,0.00,20.48,38.21,17.73
8915,3300.00,3300.00,3246.01,0.1909,1.0203,0.4358,-82.420,23.056,-73.351,-17.58,65.44,0.4199,-0.7766,0.1614,58.186,56.671,69.467,-11.34,-76.00,0.0000,0.0000,0.0000,0.000,0.000,0.000,0.00,0.00,20.47,37.66,17.19
8940,3300.00,3300.00,704.32,0.3572,0.9578,0.2854,-107.764,6.827,-65.351,-17.46,63.01,0.4038,-0.8857,0.1543,36.781,52.824,83.452,-10.33,-75.20,0.0000,0.0000,0.0000,0.000,0.000,0.000,0.00,0.00,20.53,37.15,16.62
8954,372.31,0.00,0.00,0.3374,0.9521,0.3220,-101.382,7.620,-60.206,-17.38,61.75,0.4722,-0.9060,0.1311,47.544,51.832,80.047,-9.93,-74.66,0.0000,0.0000,0.0000,0.000,0.000,0.000,0.00,0.00,20.60,36.66,16.06
8979,3300.00,3300.00,3300.00,0.3384,0.9583,0.2830,-81.504,27.330,-54.832,-16.75,60.03,0.4788,-0.8730,0.1699,31.575,51.465,76.566,-9.07,-73.99,0.0000,0.0000,0.0000,0.000,0.000,0.000,0.00,0.00,20.69,36.16,15.48
8993,3300.00,3300.00,3300.00,0.3157,0.9548,0.2773,-69.275,36.323,-60.679,-16.25,59.33,0.4883,-0.8699,0.2212,17.621,50.030,79.009,-8.75,-73.78,0.0000,0.0000,0.0000,0.000,0.000,0.000,0.00,0.00,20.75,35.67,14.92
9018,0.00,0.00,0.00,0.3052,1.0210,0.2280,-65.229,43.254,-79.336,-15.22,58.13,0.5012,-0.9226,0.2654,42.155,40.228,69.467,-8.16,-72.77,0.0000,0.0000,0.0000,0.000,0.000,0.000,0.00,0.00,20.78,35.14,14.35
9032,2287.03,1276.48,0.00,0.2847,0.9844,0.2769,-61.107,36.933,-89.657,-14.71,57.60,0.5381,-0.9072,0.2476,52.354,41.465,63.574,-8.02,-72.08,0.0000,0.0000,0.0000,0.000,0.000,0.000,0.00,0.00,20.79,34.60,13.82
9046,3300.00,3300.00,0.00,0.2588,0.9358,0.3499,-51.000,25.300,-99.000,-14.35,57.12,0.4998,-0.9182,0.2175,59.880,50.473,60.963,-7.71,-71.33,0.0000,0.0000,0.0000,0.000,0.000,0.000,0.00,0.00,20.78,34.08,13.30
9071,0.00,0.00,0.00,0.2524,0.9500,0.3870,-62.542,24.750,-102.221,-13.75,55.83,0.4067,-0.9141,0.2136,75.193,49.526,61.314,-6.83,-69.63,0.0000,0.0000,0.0000,0.000,0.000,0.000,0.00,0.00,20.80,33.56,12.75
9085,0.00,0.00,0.00,0.2334,1.0349,0.3979,-66.863,31.880,-101.000,-13.26,55.17,0.3608,-0.9204,0.2517,78.369,48.885,66.261,-6.43,-68.64,0.0000,0.0000,0.0000,0.000,0.000,0.000,0.00,0.00,20.81,33.03,12.22
9099,1727.77,0.00,0.00,0.2019,0.9124,0.4539,-75.107,30.078,-99.290,-12.80,54.28,0.3452,-0.8965,0.2568,85.651,53.572,71.772,-5.96,-67.55,0.0000,0.0000,0.0000,0.000,0.000,0.000,0.00,0.00,20.83,32.52,11.69
9124,743.00,560.07,0.00,0.0962,0.9529,0.5188,-60.206,32.796,-98.557,-11.86,52.98,0.3113,-0.9233,0.2820,87.835,54.290,63.406,-4.90,-65.56,0.0000,0.0000,0.0000,0.000,0.000,0.000,0.00,0.00,20.84,31.97,11.12
9138,0.00,0.00,0.00,0.1060,0.9590,0.5190,-63.077,33.300,-93.611,-11.27,52.27,0.2847,-0.8582,0.3123,83.926,58.748,59.070,-4.32,-64.47,0.0000,0.0000,0.0000,0.000,0.000,0.000,0.00,0.00,20.86,31.42,10.56
9152,0.00,0.00,0.00,0.0681,0.9570,0.4905,-71.473,34.659,-83.534,-10.63,51.49,0.2546,-0.8313,0.3557,72.598,61.404,58.780,-3.70,-63.51,0.0000,0.0000,0.0000,0.000,0.000,0.000,0.00,0.00,20.87,30.86,9.99
9177,3300.00,3300.00,2204.84,0.0620,0.9121,0.5139,-47.535,30.048,-77.092,-9.77,50.53,0.2581,-0.9297,0.3740,71.880,61.022,48.536,-2.45,-61.88,0.0000,0.0000,0.0000,0.000,0.000,0.000,0.00,0.00,20.92,30.28,9.37
9191,1862.34,1443.30,0.00,0.0635,0.9792,0.5110,-33.351,23.651,-85.061,-9.31,50.31,0.2844,-0.9080,0.3396,70.018,67.633,44.612,-1.78,-61.05,0.0000,0.0000,0.0000,0.000,0.000,0.000,0.00,0.00,20.97,29.71,8.74
9215,1250.70,1992.89,0.00,0.1223,0.9846,0.5393,-58.771,13.743,-90.924,-8.92,49.12,0.3337,-0.8911,0.2422,60.476,77.908,45.711,-0.28,-59.88,0.0000,0.0000,0.0000,0.000,0.000,0.000,0.00,0.00,21.09,29.15,8.06
9229,1654.43,2326.52,0.00,0.1829,0.9963,0.5461,-75.306,12.796,-84.847,-8.74,48.31,0.3384,-0.9314,0.2441,50.873,75.938,55.375,0.40,-59.48,0.0000,0.0000,0.0000,0.000,0.000,0.000,0.00,0.00,21.25,28.62,7.38
9244,116.04,0.00,0.00,0.1973,0.9871,0.5354,-82.267,13.376,-81.580,-8.58,47.42,0.3320,-0.9160,0.2642,46.903,77.175,63.665,1.09,-59.11,0.0000,0.0000,0.0000,0.000,0.000,0.000,0.00,0.00,21.42,28.12,6.69
9268,0.00,0.00,0.00,0.1223,1.0015,0.5129,-79.412,16.582,-85.229,-8.14,45.82,0.3181,-0.9485,0.3445,53.712,74.534,74.139,2.51,-58.04,0.0000,0.0000,0.0000,0.000,0.000,0.000,0.00,0.00,21.66,27.62,5.96
9282,0.00,0.00,0.00,0.0757,0.9785,0.5129,-77.779,21.681,-85.092,-7.75,45.07,0.2693,-0.9067,0.3857,54.964,70.183,75.223,3.13,-57.45,0.0000,0.0000,0.0000,0.000,0.000,0.000,0.00,0.00,21.89,27.12,5.23
9297,0.00,0.00,0.00,0.0642,0.9543,0.5037,-69.687,25.483,-83.626,-7.31,44.44,0.2588,-0.8960,0.4014,49.743,65.419,75.070,3.69,-56.92,0.0000,0.0000,0.0000,0.000,0.000,0.000,0.00,0.00,22.12,26.63,4.51
9321,0.00,0.00,0.00,0.0356,0.9500,0.5098,-45.397,29.911,-84.145,-6.48,43.70,0.2637,-0.9387,0.4512,51.148,60.290,67.452,4.77,-55.85,0.0000,0.0000,0.0000,0.000,0.000,0.000,0.00,0.00,22.35,26.12,3.77
9335,0.00,0.00,0.00,-0.0093,0.9617,0.5327,-51.153,28.140,-86.542,-5.95,43.33,0.2515,-0.8887,0.4355,65.086,56.854,61.055,5.18,-55.10,0.0000,0.0000,0.0000,0.000,0.000,0.000,0.00,0.00,22.55,25.61,3.06
9350,0.00,0.00,0.00,-0.0396,0.9941,0.5454,-52.435,25.559,-92.908,-5.43,42.96,0.2227,-0.8381,0.4390,71.529,58.519,59.177,5.63,-54.25,0.0000,0.0000,0.0000,0.000,0.000,0.000,0.00,0.00,22.74,25.09,2.36
9374,0.00,0.00,0.00,-0.0720,0.9314,0.5830,-67.428,30.445,-82.023,-4.52,41.65,0.1736,-0.8049,0.4346,62.232,65.114,65.757,6.86,-52.91,0.0000,0.0000,0.0000,0.000,0.000,0.000,0.00,0.00,22.93,24.55,1.62
9388,0.00,0.00,0.00,-0.0605,0.8950,0.5862,-72.542,31.834,-83.992,-3.93,40.94,0.1641,-0.8755,0.4546,60.949,65.801,74.810,7.45,-52.26,0.0000,0.0000,0.0000,0.000,0.000,0.000,0.00,0.00,23.11,24.01,0.89
9403,0.00,0.00,0.00,-0.0925,0.9421,0.5842,-68.176,34.216,-100.466,-3.27,40.33,0.1614,-0.8406,0.4922,61.758,68.564,76.734,8.07,-51.54,0.0000,0.0000,0.0000,0.000,0.000,0.000,0.00,0.00,23.28,23.45,0.17
9427,0.00,0.00,0.00,-0.1221,0.8545,0.6499,-61.138,25.941,-107.550,-2.45,39.11,0.1226,-0.9731,0.5310,59.804,75.877,66.902,9.61,-50.30,0.0000,0.0000,0.0000,0.000,0.000,0.000,0.00,0.00,23.48,22.88,-0.60
9441,0.00,0.00,0.00,-0.1531,0.9561,0.6584,-48.084,24.002,-108.389,-1.92,38.77,0.0981,-0.8914,0.5483,48.842,78.702,58.887,10.40,-49.78,0.0000,0.0000,0.0000,0.000,0.000,0.000,0.00,0.00,23.69,22.31,-1.38
9455,0.00,0.00,0.00,-0.1819,1.0854,0.6565,-42.527,16.674,-100.206,-1.49,38.58,0.0291,-0.8765,0.6025,30.369,78.305,55.314,11.26,-49.47,0.0000,0.0000,0.0000,0.000,0.000,0.000,0.00,0.00,23.91,21.75,-2.16
9480,0.00,0.00,0.00,-0.2061,0.9246,0.6753,-20.680,7.498,-78.344,-1.07,38.39,0.0100,-0.9795,0.5898,53.483,58.259,27.818,12.41,-48.38,0.0000,0.0000,0.0000,0.000,0.000,0.000,0.00,0.00,24.17,21.20,-2.97
9494,0.00,0.00,0.00,-0.1938,0.8816,0.7173,-5.260,12.201,-66.893,-0.69,38.56,-0.0142,-0.9673,0.5881,70.048,50.763,9.543,12.89,-47.62,0.0000,0.0000,0.0000,0.000,0.000,0.000,0.00,0.00,24.42,20.66,-3.76
9508,0.00,0.00,0.00,-0.2200,0.9260,0.7283,0.862,9.834,-57.763,-0.33,38.84,0.0093,-0.8652,0.5581,58.934,46.625,7.070,13.27,-46.99,0.0000,0.0000,0.0000,0.000,0.000,0.000,0.00,0.00,24.65,20.14,-4.51
9533,0.00,0.00,0.00,-0.2319,0.9827,0.7322,-30.420,-10.028,-36.573,-0.35,38.40,0.0085,-0.7434,0.5366,12.888,43.145,21.711,14.03,-46.82,0.0000,0.0000,0.0000,0.000,0.000,0.000,0.00,0.00,24.92,19.65,-5.27
9547,0.00,0.00,0.00,-0.2029,1.0000,0.6965,-55.916,-16.166,-24.511,-0.38,37.95,0.0344,-0.8403,0.4812,21.239,36.870,21.849,14.22,-46.79,0.0000,0.0000,0.0000,0.000,0.000,0.000,0.00,0.00,25.19,19.20,-5.99
9561,0.00,0.00,0.00,-0.1782,0.9336,0.6721,-57.122,-8.548,-16.786,-0.31,37.48,0.0129,-0.9473,0.5369,57.972,32.244,5.024,14.37,-46.25,0.0000,0.0000,0.0000,0.000,0.000,0.000,0.00,0.00,25.44,18.77,-6.67
9586,0.00,0.00,0.00,-0.2224,0.8306,0.6938,-34.557,-6.624,-6.420,-0.23,36.91,-0.0081,-0.7820,0.5510,51.163,28.916,-3.342,14.79,-45.20,0.0000,0.0000,0.0000,0.000,0.000,0.000,0.00,0.00,25.70,18.37,-7.33
9600,0.00,0.00,0.00,-0.2363,0.8284,0.7275,-33.565,-8.364,-11.550,-0.10,36.67,-0.0107,-0.7622,0.5935,21.102,33.038,6.047,14.97,-45.04,0.0000,0.0000,0.0000,0.000,0.000,0.000,0.00,0.00,25.94,17.99,-7.95
9614,0.00,0.00,0.00,-0.2258,0.8328,0.7454,-54.099,-15.799,-15.214,-0.09,36.14,-0.0208,-0.7532,0.5762,-8.578,31.312,17.253,15.13,-45.32,0.0000,0.0000,0.0000,0.000,0.000,0.000,0.00,0.00,26.18,17.64,-8.55
9639,0.00,0.00,0.00,-0.2026,0.8420,0.6619,-56.848,-12.700,-17.473,-0.18,35.09,-0.0369,-0.8162,0.5369,-8.685,24.106,27.207,15.45,-45.75,0.0000,0.0000,0.0000,0.000,0.000,0.000,0.00,0.00,26.43,17.31,-9.12
9653,0.00,0.00,0.00,-0.1970,0.8259,0.6951,-48.008,-5.830,-17.611,-0.05,34.72,-0.0144,-0.8740,0.5396,25.972,16.228,18.520,15.39,-45.64,0.0000,0.0000,0.0000,0.000,0.000,0.000,0.00,0.00,26.65,17.00,-9.65
9667,0.00,0.00,0.00,-0.2122,0.8203,0.7390,-38.313,-2.288,-16.740,0.13,34.45,-0.0457,-0.8364,0.5649,36.873,20.213,12.215,15.41,-45.33,0.0000,0.0000,0.0000,0.000,0.000,0.000,0.00,0.00,26.85,16.70,-10.15
9692,0.00,0.00,0.00,-0.2192,0.8264,0.7915,-36.863,-5.998,-10.954,0.20,33.80,-0.0603,-0.8289,0.5530,4.766,23.587,17.956,15.74,-45.44,0.0000,0.0000,0.0000,0.000,0.000,0.000,0.00,0.00,27.04,16.42,-10.63
9706,0.00,0.00,0.00,-0.2017,0.8274,0.7861,-53.580,-10.654,-9.504,0.25,33.31,-0.0566,-0.8408,0.5596,-6.761,20.412,18.963,15.77,-45.75,0.0000,0.0000,0.0000,0.000,0.000,0.000,0.00,0.00,27.23,16.15,-11.08
9720,0.00,0.00,0.00,-0.1860,0.7932,0.7195,-52.481,-4.868,-9.290,0.38,32.86,-0.0559,-0.8694,0.5420,-3.860,16.793,14.612,15.76,-46.05,0.0000,0.0000,0.0000,0.000,0.000,0.000,0.00,0.00,27.39,15.89,-11.50
9745,0.00,0.00,0.00,-0.1509,0.7998,0.7227,-13.336,12.903,-12.527,0.84,32.84,-0.0271,-0.8914,0.5601,19.438,9.877,7.849,15.71,-45.82,0.0000,0.0000,0.0000,0.000,0.000,0.000,0.00,0.00,27.50,15.62,-11.88
9759,0.00,0.00,0.00,-0.1653,0.8154,0.7688,-8.512,13.849,-10.847,1.18,33.00,-0.0532,-0.8423,0.5349,18.277,11.450,6.536,15.61,-45.80,0.0000,0.0000,0.0000,0.000,0.000,0.000,0.00,0.00,27.57,15.34,-12.24
9773,0.00,0.00,0.00,-0.1877,0.8503,0.7622,-7.031,10.888,-9.229,1.49,33.20,-0.0325,-0.8098,0.5339,5.621,7.862,8.994,15.45,-45.94,0.0000,0.0000,0.0000,0.000,0.000,0.000,0.00,0.00,27.61,15.06,-12.55
9798,0.00,0.00,0.00,-0.2214,0.8582,0.7805,-3.870,7.529,-5.244,1.86,33.40,-0.0349,-0.8037,0.5530,-11.356,10.992,14.627,15.44,-46.40,0.0000,0.0000,0.0000,0.000,0.000,0.000,0.00,0.00,27.62,14.77,-12.85
9812,0.00,0.00,0.00,-0.2153,0.8611,0.7573,-2.924,6.140,-3.962,2.12,33.67,-0.0442,-0.8301,0.5464,-11.417,11.755,15.207,15.35,-46.77,0.0000,0.0000,0.0000,0.000,0.000,0.000,0.00,0.00,27.60,14.49,-13.11
9826,0.00,0.00,0.00,-0.2039,0.8379,0.7649,-6.252,9.880,-2.771,2.42,33.86,-0.0474,-0.8540,0.5552,2.201,9.908,9.085,15.23,-46.94,0.0000,0.0000,0.0000,0.000,0.000,0.000,0.00,0.00,27.55,14.20,-13.35
9851,0.00,0.00,0.00,-0.1853,0.8125,0.7463,-11.596,10.552,-0.191,2.82,33.85,-0.0662,-0.8477,0.5498,18.506,4.503,5.223,15.11,-46.70,0.0000,0.0000,0.0000,0.000,0.000,0.000,0.00,0.00,27.47,13.91,-13.57
9865,0.00,0.00,0.00,-0.2092,0.8137,0.7483,-13.641,11.346,1.397,3.13,33.93,-0.0625,-0.8274,0.5637,9.224,3.206,8.566,14.93,-46.75,0.0000,0.0000,0.0000,0.000,0.000,0.000,0.00,0.00,27.37,13.61,-13.75
9879,0.00,0.00,0.00,-0.2319,0.7986,0.7705,-6.191,14.216,-0.588,3.51,34.09,-0.0618,-0.7957,0.5894,-1.799,6.015,10.734,14.78,-46.91,0.0000,0.0000,0.0000,0.000,0.000,0.000,0.00,0.00,27.23,13.31,-13.92
9903,0.00,0.00,0.00,-0.2620,0.8047,0.7544,1.443,4.491,-0.893,3.81,34.38,-0.0637,-0.7910,0.5796,-8.364,5.816,12.658,14.70,-47.25,0.0000,0.0000,0.0000,0.000,0.000,0.000,0.00,0.00,27.07,13.01,-14.06
9918,0.00,0.00,0.00,-0.2517,0.8079,0.7527,1.320,3.514,-0.435,4.04,34.65,-0.0659,-0.8279,0.5962,7.285,2.610,7.238,14.52,-47.28,0.0000,0.0000,0.0000,0.000,0.000,0.000,0.00,0.00,26.90,12.72,-14.19
9932,0.00,0.00,0.00,-0.2349,0.8215,0.7444,-0.451,2.857,-1.046,4.24,34.90,-0.0708,-0.8296,0.5991,16.338,0.961,2.841,14.32,-47.19,0.0000,0.0000,0.0000,0.000,0.000,0.000,0.00,0.00,26.71,12.43,-14.29
9957,0.00,0.00,0.00,-0.2429,0.8220,0.7234,2.007,7.300,-0.206,4.58,35.23,-0.0530,-0.8206,0.5747,8.674,4.809,1.421,14.21,-47.14,0.0000,0.0000,0.0000,0.000,0.000,0.000,0.00,0.00,26.51,12.13,-14.37
9971,0.00,0.00,0.00,-0.2483,0.8269,0.7268,1.778,9.193,0.237,4.87,35.52,-0.0437,-0.7961,0.5862,1.178,5.358,2.123,14.05,-47.25,0.0000,0.0000,0.0000,0.000,0.000,0.000,0.00,0.00,26.28,11.84,-14.44
9985,0.00,0.00,0.00,-0.2283,0.8257,0.7461,-2.008,9.376,-0.557,5.14,35.74,-0.0383,-0.8042,0.5757,-4.517,5.969,4.261,13.90,-47.46,0.0000,0.0000,0.0000,0.000,0.000,0.000,0.00,0.00,26.05,11.55,-14.49
10010,0.00,0.00,0.00,-0.2009,0.8489,0.7349,3.107,7.407,-1.565,5.41,36.08,-0.0256,-0.8232,0.5449,-6.761,4.992,8.734,13.77,-47.80,0.0000,0.0000,0.0000,0.000,0.000,0.000,0.00,0.00,25.80,11.26,-14.53
10024,0.00,0.00,0.00,-0.2007,0.8425,0.7263,3.229,9.132,-0.557,5.64,36.39,-0.0237,-0.8184,0.5496,-0.608,2.610,7.467,13.56,-47.98,0.0000,0.0000,0.0000,0.000,0.000,0.000,0.00,0.00,25.53,10.98,-14.56
10038,0.00,0.00,0.00,-0.2024,0.8337,0.7446,-1.275,11.254,0.389,5.89,36.61,-0.0332,-0.8188,0.5608,-1.921,-0.077,8.566,13.32,-48.16,0.0000,0.0000,0.0000,0.000,0.000,0.000,0.00,0.00,25.26,10.69,-14.56
10062,0.00,0.00,0.00,-0.2209,0.8145,0.7317,-4.832,10.536,0.939,6.25,36.72,-0.0425,-0.8284,0.5789,-9.570,-0.489,9.314,13.09,-48.52,0.0000,0.0000,0.0000,0.000,0.000,0.000,0.00,0.00,24.96,10.41,-14.55
10077,0.00,0.00,0.00,-0.2231,0.8354,0.7214,1.855,11.086,-0.405,6.51,37.00,-0.0483,-0.8352,0.5642,-5.860,-2.077,6.658,12.86,-48.75,0.0000,0.0000,0.0000,0.000,0.000,0.000,0.00,0.00,24.64,10.12,-14.52
10091,0.00,0.00,0.00,-0.2083,0.8496,0.7349,5.534,11.972,-0.771,6.75,37.32,-0.0461,-0.8306,0.5615,-2.761,-3.619,4.765,12.60,-48.94,0.0000,0.0000,0.0000,0.000,0.000,0.000,0.00,0.00,24.32,9.84,-14.48
10115,0.00,0.00,0.00,-0.1899,0.8386,0.7207,8.923,11.788,2.664,7.10,37.77,-0.0344,-0.8293,0.5474,-4.608,-6.504,4.765,12.24,-49.20,0.0000,0.0000,0.0000,0.000,0.000,0.000,0.00,0.00,23.96,9.55,-14.41
10129,0.00,0.00,0.00,-0.1924,0.8389,0.7073,7.336,11.269,4.343,7.31,38.12,-0.0181,-0.8286,0.5476,2.033,-8.565,2.123,11.89,-49.32,0.0000,0.0000,0.0000,0.000,0.000,0.000,0.00,0.00,23.60,9.27,-14.33
10144,0.00,0.00,0.00,-0.2034,0.8374,0.7334,4.191,10.369,5.107,7.52,38.39,-0.0168,-0.8286,0.5542,4.766,-8.214,1.268,11.56,-49.39,0.0000,0.0000,0.0000,0.000,0.000,0.000,0.00,0.00,23.22,8.99,-14.23
10168,0.00,0.00,0.00,-0.2080,0.8633,0.7156,5.656,8.536,1.580,7.78,38.76,-0.0149,-0.8271,0.5520,4.613,-6.550,1.864,11.19,-49.42,0.0000,0.0000,0.0000,0.000,0.000,0.000,0.00,0.00,22.82,8.71,-14.11
10182,0.00,0.00,0.00,-0.2058,0.8594,0.7139,7.733,9.132,1.824,7.96,39.10,-0.0239,-0.8230,0.5518,1.575,-5.420,2.780,10.92,-49.53,0.0000,0.0000,0.0000,0.000,0.000,0.000,0.00,0.00,22.42,8.44,-13.97
10197,0.00,0.00,0.00,-0.1978,0.8457,0.7136,6.527,9.132,2.511,8.13,39.41,-0.0254,-0.8311,0.5469,-3.753,-4.397,4.368,10.67,-49.72,0.0000,0.0000,0.0000,0.000,0.000,0.000,0.00,0.00,22.01,8.18,-13.83
10221,0.00,0.00,0.00,-0.2083,0.8447,0.7017,4.053,9.804,1.824,8.42,39.72,-0.0208,-0.8247,0.5623,-5.631,-6.382,6.291,10.32,-49.98,0.0000,0.0000,0.0000,0.000,0.000,0.000,0.00,0.00,21.60,7.92,-13.68
10235,0.00,0.00,0.00,-0.2180,0.8423,0.7068,5.015,9.529,-0.496,8.61,40.00,-0.0259,-0.8223,0.5728,-7.662,-7.619,6.978,10.04,-50.19,0.0000,0.0000,0.0000,0.000,0.000,0.000,0.00,0.00,21.17,7.66,-13.52
10249,0.00,0.00,0.00,-0.2197,0.8477,0.7175,5.931,7.407,-1.962,8.76,40.27,-0.0156,-0.8203,0.5706,-4.990,-8.459,6.597,9.74,-50.36,0.0000,0.0000,0.0000,0.000,0.000,0.000,0.00,0.00,20.75,7.41,-13.34
10274,0.00,0.00,0.00,-0.2234,0.8494,0.7048,6.252,3.498,-4.053,8.90,40.62,-0.0183,-0.8196,0.5735,-1.967,-8.428,5.039,9.36,-50.50,0.0000,0.0000,0.0000,0.000,0.000,0.000,0.00,0.00,20.32,7.16,-13.16
10288,0.00,0.00,0.00,-0.2134,0.8542,0.6846,3.504,1.544,-3.992,8.96,40.89,-0.0173,-0.8318,0.5686,-1.646,-9.313,5.085,9.07,-50.62,0.0000,0.0000,0.0000,0.000,0.000,0.000,0.00,0.00,19.89,6.93,-12.96
10302,0.00,0.00,0.00,-0.2151,0.8591,0.6909,1.717,0.582,-3.687,9.01,41.12,-0.0198,-0.8230,0.5796,-2.394,-9.756,6.215,8.77,-50.74,0.0000,0.0000,0.0000,0.000,0.000,0.000,0.00,0.00,19.47,6.71,-12.76
10327,0.00,1342.56,0.00,-0.2351,0.8555,0.7166,1.977,-1.433,-1.748,9.04,41.34,-0.0269,-0.8101,0.5793,-7.295,-11.420,8.123,8.35,-50.99,0.0000,0.0000,0.0000,0.000,0.000,0.000,0.00,0.00,19.05,6.51,-12.54
10341,0.00,0.00,0.00,-0.2292,0.8484,0.7112,2.633,-2.257,-2.038,9.06,41.55,-0.0266,-0.8174,0.5747,-11.692,-13.375,9.452,8.03,-51.23,0.0000,0.0000,0.0000,0.000,0.000,0.000,0.00,0.00,18.63,6.32,-12.32
10355,0.00,0.00,0.00,-0.2168,0.8486,0.6982,5.290,-1.235,-2.160,9.08,41.81,-0.0276,-0.8372,0.5745,-18.639,-14.901,12.536,7.69,-51.58,0.0000,0.0000,0.0000,0.000,0.000,0.000,0.00,0.00,18.22,6.14,-12.08
10380,0.00,3300.00,1517.44,-0.2122,0.8540,0.7009,2.679,-4.456,-0.924,9.01,42.05,-0.0205,-0.8376,0.5752,-29.952,-22.107,15.559,7.03,-52.37,0.0000,0.0000,0.0000,0.000,0.000,0.000,0.00,0.00,17.80,5.98,-11.82
10394,0.00,3300.00,53.19,-0.2036,0.8591,0.6917,2.694,-4.456,0.954,8.98,42.27,-0.0090,-0.8325,0.5637,-33.326,-23.848,17.940,6.57,-52.91,0.0000,0.0000,0.0000,0.000,0.000,0.000,0.00,0.00,17.37,5.83,-11.55
10408,0.00,985.57,0.00,-0.2141,0.8635,0.7036,0.374,-5.738,1.122,8.94,42.44,-0.0139,-0.8350,0.5527,-36.578,-21.634,19.024,6.15,-53.49,0.0000,0.0000,0.0000,0.000,0.000,0.000,0.00,0.00,16.95,5.69,-11.26
10433,0.00,3300.00,0.00,-0.2139,0.8550,0.7202,3.962,-3.219,-1.657,8.90,42.69,0.0095,-0.8560,0.5342,-16.394,-11.558,10.505,5.74,-53.97,0.0000,0.0000,0.0000,0.000,0.000,0.000,0.00,0.00,16.53,5.57,-10.96
10447,0.00,3300.00,519.78,-0.2256,0.8643,0.7288,2.069,-3.708,-4.450,8.89,42.86,0.0015,-0.8169,0.5430,-7.219,3.099,8.291,5.67,-54.12,0.0000,0.0000,0.0000,0.000,0.000,0.000,0.00,0.00,16.14,5.45,-10.69
10461,0.00,3300.00,464.18,-0.2432,0.7905,0.6526,6.465,5.101,-4.267,9.05,43.10,0.0430,-0.8328,0.5518,30.293,-5.497,-10.289,5.43,-53.75,0.0000,0.0000,0.0000,0.000,0.000,0.000,0.00,0.00,15.74,5.34,-10.41
10486,0.00,542.34,0.00,-0.2478,0.8550,0.6831,2.725,-2.624,-3.870,9.06,43.33,-0.0242,-0.8113,0.5735,5.773,9.541,-3.800,5.58,-53.63,0.0000,0.0000,0.0000,0.000,0.000,0.000,0.00,0.00,15.39,5.23,-10.16
10500,0.00,3300.00,0.00,-0.2444,0.8672,0.7334,15.901,-3.128,-6.221,9.08,43.68,0.0110,-0.8325,0.5759,10.461,24.564,-6.365,5.80,-53.52,0.0000,0.0000,0.0000,0.000,0.000,0.000,0.00,0.00,15.07,5.12,-9.95
10514,0.00,3300.00,2308.79,-0.2253,0.8804,0.7131,8.435,-0.395,-4.313,9.12,43.95,-0.0208,-0.8354,0.5732,14.430,27.969,-10.014,6.10,-53.35,0.0000,0.0000,0.0000,0.000,0.000,0.000,0.00,0.00,14.79,5.02,-9.77
10539,0.00,0.00,0.00,-0.2627,0.8999,0.7231,-14.603,-4.486,-0.985,9.09,43.74,-0.0312,-0.8040,0.5447,25.957,33.816,-17.067,6.82,-52.78,0.0000,0.0000,0.0000,0.000,0.000,0.000,0.00,0.00,14.59,4.93,-9.65
10553,0.00,0.00,0.00,-0.2515,0.8743,0.7024,-5.565,-4.089,-4.389,9.10,43.82,-0.0588,-0.8054,0.5513,19.544,25.694,-12.472,7.11,-52.57,0.0000,0.0000,0.0000,0.000,0.000,0.000,0.00,0.00,14.42,4.85,-9.57
10567,0.00,0.00,0.00,-0.2346,0.8855,0.6836,-9.825,2.933,1.992,9.20,43.85,0.1599,-0.9207,0.6970,16.934,12.977,-7.739,7.00,-52.34,0.0000,0.0000,0.0000,0.000,0.000,0.000,0.00,0.00,14.24,4.76,-9.48
10592,0.00,0.00,0.00,-0.2388,0.8347,0.7000,-8.939,-1.219,1.198,9.23,43.76,-0.0212,-0.8469,0.5745,-0.623,4.931,0.429,7.00,-52.42,0.0000,0.0000,0.0000,0.000,0.000,0.000,0.00,0.00,14.08,4.68,-9.40
10606,0.00,0.00,0.00,-0.2173,0.8257,0.6829,-10.771,-4.548,2.328,9.21,43.74,-0.0581,-0.8503,0.5527,3.804,5.877,-2.060,7.01,-52.46,0.0000,0.0000,0.0000,0.000,0.000,0.000,0.00,0.00,13.93,4.61,-9.32
10620,0.00,0.00,0.00,-0.2166,0.8303,0.7126,-0.496,-0.639,0.114,9.24,43.85,-0.0625,-0.8445,0.5566,12.338,4.473,-8.732,7.00,-52.37,0.0000,0.0000,0.0000,0.000,0.000,0.000,0.00,0.00,13.78,4.54,-9.25
10645,0.00,3300.00,3300.00,-0.2205,0.8499,0.7256,4.236,-0.059,-2.237,9.28,44.06,-0.0374,-0.8232,0.5342,11.483,4.519,-9.037,7.01,-52.19,0.0000,0.0000,0.0000,0.000,0.000,0.000,0.00,0.00,13.65,4.47,-9.18
10659,0.00,3300.00,0.00,-0.2161,0.8608,0.7012,3.580,-1.082,-1.229,9.30,44.25,-0.0273,-0.8381,0.5457,4.796,2.992,-4.594,6.94,-52.22,0.0000,0.0000,0.0000,0.000,0.000,0.000,0.00,0.00,13.52,4.40,-9.12
