timestamp_ms,EMG_Quad_mV,EMG_Ham_mV,EMG_Calf_mV,ACC_Quad_X_g,ACC_Quad_Y_g,ACC_Quad_Z_g,GYR_Quad_X_dps,GYR_Quad_Y_dps,GYR_Quad_Z_dps,Pitch_Quad_deg,Roll_Quad_deg,ACC_Ham_X_g,ACC_Ham_Y_g,ACC_Ham_Z_g,GYR_Ham_X_dps,GYR_Ham_Y_dps,GYR_Ham_Z_dps,Pitch_Ham_deg,Roll_Ham_deg,ACC_Calf_X_g,ACC_Calf_Y_g,ACC_Calf_Z_g,GYR_Calf_X_dps,GYR_Calf_Y_dps,GYR_Calf_Z_dps,Pitch_Calf_deg,Roll_Calf_deg,Angle_Quad_Ham_deg,Angle_Quad_Calf_deg,Angle_Ham_Calf_deg
3,1329.67,1547.25,1493.26,0.1074,0.0422,1.1946,0.547,-1.111,0.195,-5.53,2.22,0.2568,-0.0046,1.0027,0.229,-0.218,-0.163,-14.50,-0.58,0.7808,0.1061,0.6477,-0.956,-0.602,1.449,-51.14,8.57,-0.06,-0.08,-0.02
18,1862.34,2003.37,1946.96,0.1033,0.0398,1.1736,0.517,-1.783,0.073,-5.54,2.22,0.2581,-0.0076,0.9861,-0.046,0.194,-0.102,-14.50,-0.58,0.7839,0.0901,0.6401,-1.169,-2.006,2.182,-51.16,8.54,-0.11,-0.15,-0.04
33,2237.88,2242.71,2200.81,0.1162,0.0410,1.1992,0.273,-6.073,0.088,-5.63,2.22,0.2568,-0.0068,0.9878,0.183,0.041,-0.132,-14.50,-0.57,0.7792,0.1033,0.6241,-1.002,-2.816,-0.200,-51.20,8.54,-0.16,-0.22,-0.06
58,859.05,846.15,880.81,0.1104,0.0271,1.1858,0.074,-5.218,-2.538,-5.75,2.20,0.2549,-0.0144,0.9875,0.092,-0.005,-0.132,-14.50,-0.57,0.7867,0.0967,0.6027,-1.444,-1.503,3.602,-51.25,8.52,-0.19,-0.27,-0.08
72,902.56,1025.86,1032.31,0.1040,0.0383,1.1899,0.074,-5.554,-2.110,-5.81,2.20,0.2529,-0.0146,0.9929,-0.015,0.087,-0.102,-14.50,-0.58,0.7870,0.0822,0.6106,-0.070,0.055,-0.078,-51.26,8.50,-0.21,-0.32,-0.11
87,1278.10,1515.02,1457.00,0.1650,-0.0225,1.0784,1.448,6.629,-0.523,-5.78,2.15,0.2559,-0.0146,0.9922,0.015,0.163,-0.071,-14.49,-0.58,0.7928,0.0719,0.6250,-0.879,0.223,2.228,-51.27,8.45,-0.24,-0.37,-0.13
112,1458.61,1311.94,1378.83,0.1179,0.0374,1.1877,0.456,-2.531,0.653,-5.84,2.16,0.2539,-0.0105,0.9934,0.092,-0.188,-0.148,-14.50,-0.58,0.7954,0.0774,0.6111,0.281,0.055,-3.131,-51.29,8.43,-0.26,-0.41,-0.15
126,1021.83,928.35,992.82,0.1182,0.0364,1.1980,0.517,-0.928,0.393,-5.84,2.15,0.2610,-0.0095,0.9961,0.107,-0.066,-0.163,-14.50,-0.58,0.7849,0.1040,0.6140,0.082,1.612,-0.368,-51.27,8.46,-0.28,-0.44,-0.17
141,824.40,836.48,892.09,0.1182,0.0415,1.1870,0.776,1.240,1.951,-5.82,2.16,0.2637,-0.0085,1.0002,0.290,-0.203,-0.193,-14.51,-0.57,0.7871,0.1039,0.6144,0.846,2.070,-1.650,-51.25,8.49,-0.29,-0.48,-0.18
165,2260.44,2225.79,2178.24,0.1135,0.0435,1.1851,1.280,6.201,0.271,-5.67,2.19,0.2563,-0.0073,0.9861,0.137,0.041,-0.102,-14.51,-0.57,0.7795,0.1082,0.6453,-0.147,2.696,-0.169,-51.16,8.51,-0.32,-0.51,-0.19
180,1938.90,1778.53,1814.80,0.1121,0.0391,1.1895,0.822,2.598,1.783,-5.62,2.20,0.2532,-0.0078,0.9968,0.214,0.117,-0.148,-14.50,-0.56,0.7817,0.1049,0.6547,-0.101,-0.327,0.304,-51.13,8.52,-0.35,-0.55,-0.20
194,1365.13,1226.52,1282.12,0.1072,0.0398,1.1931,0.731,0.705,1.370,-5.60,2.20,0.2522,-0.0085,0.9902,-0.031,0.056,-0.025,-14.50,-0.56,0.7802,0.1077,0.6475,-0.971,-1.640,0.350,-51.13,8.53,-0.38,-0.58,-0.20
219,1526.30,1722.93,1685.05,0.1140,0.0405,1.1902,0.731,-0.852,0.302,-5.62,2.21,0.2585,-0.0061,0.9927,0.214,0.133,-0.025,-14.50,-0.55,0.7845,0.1088,0.6144,-1.719,-3.014,3.831,-51.21,8.51,-0.40,-0.62,-0.21
234,2113.77,2204.03,2129.08,0.1111,0.0376,1.1904,0.593,-1.142,0.225,-5.63,2.22,0.2561,-0.0095,0.9949,-0.107,0.163,0.036,-14.49,-0.55,0.7802,0.0905,0.6172,-0.986,-1.686,2.121,-51.24,8.50,-0.43,-0.65,-0.22
249,2246.74,2192.75,2177.44,0.1113,0.0364,1.1877,0.547,-1.417,0.210,-5.65,2.21,0.2605,-0.0107,0.9934,0.061,0.163,0.127,-14.49,-0.55,0.7844,0.0763,0.6230,-1.429,-1.808,2.808,-51.27,8.45,-0.45,-0.68,-0.24
273,824.40,877.58,912.23,0.1348,0.0320,1.2178,-0.018,-10.730,0.622,-5.92,2.20,0.1929,-0.0146,1.0000,1.343,0.652,6.952,-14.41,-0.53,0.7826,0.0719,0.6071,-0.574,-1.182,-1.421,-51.31,8.40,-0.44,-0.70,-0.26
288,989.60,1169.30,1162.05,0.1187,0.0317,1.1921,0.273,-4.989,0.317,-5.99,2.19,0.2646,-0.0154,1.0005,1.298,-0.005,6.692,-14.41,-0.52,0.7935,0.0867,0.6031,-0.223,0.635,-0.383,-51.32,8.39,-0.43,-0.71,-0.28
303,1498.90,1714.87,1667.33,0.1213,0.0359,1.1951,0.410,-2.592,0.073,-6.02,2.19,0.1936,-0.0139,1.0088,2.092,0.087,8.188,-14.34,-0.49,0.7832,0.0881,0.5991,0.922,1.627,-1.055,-51.32,8.40,-0.41,-0.71,-0.30
327,1289.38,1138.68,1224.91,0.1187,0.0361,1.1909,0.456,-0.760,0.317,-6.03,2.19,0.2373,-0.0042,0.9978,0.565,0.347,2.539,-14.31,-0.47,0.7815,0.0974,0.6331,0.983,3.001,-1.177,-51.23,8.43,-0.39,-0.71,-0.32
342,925.93,853.41,946.08,0.1182,0.0295,1.2031,0.685,0.201,1.050,-6.02,2.18,0.2554,-0.0042,0.9937,-0.000,-0.066,-0.789,-14.32,-0.47,0.7817,0.0967,0.6439,0.815,1.154,-1.559,-51.20,8.45,-0.38,-0.71,-0.34
357,835.68,878.39,915.46,0.1140,0.0352,1.1970,1.097,3.392,3.294,-5.96,2.19,0.2556,-0.0061,0.9956,-0.031,-0.127,-0.514,-14.32,-0.47,0.7837,0.1107,0.6385,-0.421,0.772,-1.589,-51.17,8.47,-0.36,-0.71,-0.35
381,2226.59,2150.04,2123.44,0.1284,0.0474,1.1968,0.960,3.866,3.141,-5.87,2.21,0.2561,-0.0076,0.9944,-0.107,0.087,-0.285,-14.32,-0.47,0.7952,0.1169,0.6332,-0.757,-0.663,1.953,-51.18,8.49,-0.36,-0.72,-0.36
396,1777.73,1639.93,1676.19,0.0869,0.0378,1.1655,1.112,11.056,-0.034,-5.68,2.22,0.2595,-0.0012,0.9917,-0.122,0.056,-0.957,-14.33,-0.46,0.7792,0.1084,0.6370,-1.124,-0.525,2.212,-51.17,8.50,-0.37,-0.74,-0.37
411,1251.50,1121.76,1186.23,0.1047,0.0403,1.1870,0.822,4.308,0.256,-5.61,2.23,0.2546,-0.0103,0.9937,-0.702,-0.035,-3.293,-14.33,-0.47,0.7845,0.0885,0.6451,-1.521,-2.602,3.037,-51.19,8.46,-0.39,-0.76,-0.38
435,1659.27,1864.76,1781.76,0.1069,0.0398,1.1892,0.700,0.980,0.317,-5.57,2.24,0.2517,-0.0100,0.9883,0.168,-0.203,-0.514,-14.33,-0.47,0.7761,0.0824,0.6132,-1.292,-3.533,1.098,-51.28,8.41,-0.40,-0.79,-0.39
450,2207.25,2269.30,2195.97,0.1089,0.0359,1.1882,0.624,0.263,0.546,-5.56,2.24,0.2566,-0.0071,0.9990,0.305,-0.112,-0.132,-14.34,-0.47,0.7886,0.0869,0.5995,-1.200,-2.159,1.495,-51.34,8.39,-0.42,-0.83,-0.41
464,2189.52,2117.00,2092.01,0.1064,0.0388,1.1892,0.578,-0.486,0.454,-5.56,2.24,0.2563,-0.0139,0.9880,0.244,-0.264,-0.117,-14.34,-0.47,0.7799,0.0852,0.5890,-0.315,-0.388,1.006,-51.37,8.39,-0.43,-0.86,-0.43
489,866.30,967.84,979.93,0.1047,0.0344,1.1895,0.532,-0.974,0.302,-5.57,2.24,0.2534,-0.0125,0.9973,0.153,-0.127,-0.071,-14.35,-0.47,0.7802,0.0808,0.6171,0.632,2.391,-0.704,-51.31,8.38,-0.45,-0.89,-0.44
504,1175.75,1398.97,1367.55,0.1072,0.0388,1.1956,0.608,-1.173,0.302,-5.58,2.24,0.2634,-0.0754,0.9978,0.382,-0.371,0.326,-14.36,-0.54,0.7797,0.0793,0.6276,1.029,1.841,-1.696,-51.28,8.37,-0.46,-0.91,-0.45
518,1775.31,1957.44,1884.91,0.1091,0.0303,1.2017,-0.018,-5.493,-3.729,-5.65,2.22,0.2427,0.0032,0.9951,0.885,1.018,6.662,-14.33,-0.52,0.7822,0.0969,0.6239,0.678,1.887,-2.536,-51.25,8.39,-0.47,-0.92,-0.46
543,1098.39,997.66,1042.78,0.1274,0.0381,1.2085,0.059,-13.279,0.500,-5.98,2.22,0.2634,0.0391,0.9932,0.809,-0.188,3.761,-14.35,-0.44,0.7947,0.1149,0.6316,0.281,1.047,-0.612,-51.22,8.44,-0.45,-0.91,-0.46
558,855.02,858.24,884.03,0.1245,0.0378,1.1938,0.074,-8.898,0.516,-6.11,2.21,0.2561,-0.0029,0.9946,0.198,-0.035,0.723,-14.35,-0.43,0.7852,0.1173,0.6360,-0.208,1.261,0.274,-51.19,8.48,-0.43,-0.89,-0.46
572,883.22,1023.44,1019.41,0.1157,0.0381,1.1960,0.303,-5.127,0.332,-6.17,2.21,0.2566,-0.0076,0.9941,0.153,-0.035,0.051,-14.35,-0.43,0.7856,0.1077,0.6492,-0.589,-0.617,1.235,-51.17,8.49,-0.40,-0.86,-0.46
597,2050.11,1935.68,1946.96,0.1235,0.0359,1.1960,0.502,-2.531,0.363,-6.22,2.21,0.2532,-0.0071,0.9883,0.107,-0.005,-0.056,-14.35,-0.43,0.7837,0.0994,0.6302,-1.444,-2.831,1.556,-51.24,8.46,-0.37,-0.84,-0.47
611,1470.70,1317.58,1388.50,0.1150,0.0393,1.1941,0.715,-0.531,0.577,-6.22,2.21,0.2566,-0.0078,0.9851,0.137,0.087,0.036,-14.36,-0.43,0.7910,0.0979,0.6163,-1.551,-2.983,2.197,-51.29,8.45,-0.34,-0.82,-0.48
626,1059.71,971.87,1024.25,0.1169,0.0420,1.1934,0.883,0.858,1.401,-6.19,2.22,0.2568,-0.0112,0.9854,0.092,-0.020,0.142,-14.36,-0.43,0.7822,0.0916,0.6030,-1.276,-2.052,2.640,-51.33,8.44,-0.32,-0.81,-0.48
651,1954.21,2091.21,2024.32,0.1177,0.0364,1.1877,0.685,0.705,1.294,-6.17,2.23,0.2559,-0.0093,0.9897,0.092,0.117,0.188,-14.36,-0.43,0.7802,0.0759,0.6141,-0.421,0.238,0.915,-51.33,8.40,-0.30,-0.80,-0.49
665,2256.41,2238.68,2189.52,0.1162,0.0393,1.1917,0.761,0.553,1.218,-6.15,2.23,0.2603,-0.0073,0.9934,-0.015,0.163,-0.041,-14.36,-0.43,0.7740,0.0735,0.6125,0.205,0.482,-0.520,-51.33,8.37,-0.29,-0.79,-0.50
680,2010.62,1893.77,1899.41,0.1123,0.0364,1.1897,0.486,-0.379,0.653,-6.14,2.23,0.2539,-0.0068,0.9939,0.061,0.072,-0.117,-14.36,-0.43,0.7836,0.0852,0.6162,0.479,1.154,-2.001,-51.32,8.37,-0.27,-0.78,-0.51
705,925.93,1120.95,1088.72,0.1208,0.0356,1.1914,0.395,-0.837,0.241,-6.15,2.23,0.2573,-0.0117,0.9932,0.061,0.087,-0.087,-14.36,-0.43,0.7897,0.1060,0.6227,0.617,1.749,-1.177,-51.27,8.41,-0.26,-0.77,-0.51
720,1361.90,1591.58,1539.19,0.1160,0.0325,1.1924,0.456,-0.730,0.302,-6.15,2.22,0.2566,-0.0098,0.9836,-0.107,-0.035,-0.025,-14.37,-0.44,0.7883,0.1057,0.6335,0.388,2.162,-0.627,-51.23,8.43,-0.25,-0.76,-0.51
734,1984.03,2119.41,2025.13,0.1162,0.0347,1.1917,0.547,-0.791,0.271,-6.15,2.22,0.2585,-0.0127,0.9897,0.107,-0.035,0.020,-14.38,-0.44,0.7881,0.1088,0.6429,0.082,0.406,-0.062,-51.21,8.46,-0.24,-0.74,-0.51
759,1017.80,932.38,992.82,0.1177,0.0376,1.1899,0.578,-0.562,0.348,-6.15,2.23,0.2546,-0.0112,0.9912,0.046,0.072,-0.056,-14.37,-0.44,0.7893,0.1055,0.6370,-0.910,-1.716,0.762,-51.24,8.45,-0.22,-0.73,-0.51
774,847.77,862.27,901.76,0.1162,0.0388,1.1958,0.486,-0.531,0.424,-6.15,2.23,0.2585,-0.0100,1.0005,0.092,0.163,-0.102,-14.37,-0.44,0.7904,0.1060,0.6243,-1.200,-1.869,1.648,-51.27,8.46,-0.22,-0.73,-0.51
788,942.86,1098.39,1066.15,0.1128,0.0396,1.1956,0.532,-0.562,0.485,-6.14,2.23,0.2561,-0.0103,0.9976,0.107,-0.005,-0.041,-14.37,-0.45,0.7875,0.0975,0.6113,-1.261,-1.732,2.594,-51.31,8.46,-0.21,-0.72,-0.52
813,1921.17,1768.06,1797.88,0.1167,0.0381,1.1829,0.578,-0.944,0.134,-6.15,2.23,0.2532,-0.0054,0.9924,-0.061,-0.020,-0.056,-14.37,-0.44,0.7798,0.0781,0.6194,-0.849,-0.999,1.739,-51.33,8.41,-0.20,-0.72,-0.52
827,1330.48,1186.23,1258.75,0.1140,0.0396,1.1887,0.654,-1.203,0.332,-6.16,2.24,0.2566,-0.0051,0.9902,0.031,0.041,-0.102,-14.38,-0.44,0.7766,0.0778,0.6140,-0.513,-0.922,0.671,-51.35,8.38,-0.19,-0.72,-0.53
842,942.86,890.48,933.19,0.1145,0.0425,1.1912,0.624,-1.188,0.302,-6.16,2.24,0.2581,-0.0098,0.9851,-0.031,0.056,0.005,-14.38,-0.44,0.7812,0.0845,0.6074,-0.177,-0.083,-0.749,-51.36,8.37,-0.18,-0.72,-0.53
867,2140.37,2228.21,2163.74,0.1194,0.0457,1.1838,0.379,-1.921,-0.431,-6.20,2.25,0.2573,-0.0100,1.0022,-0.031,-0.112,0.005,-14.38,-0.45,0.7899,0.0967,0.6166,0.586,1.505,-0.933,-51.33,8.39,-0.17,-0.71,-0.54
881,2227.40,2149.23,2110.55,0.1162,0.0356,1.1853,0.273,-2.776,-1.286,-6.23,2.24,0.2576,-0.0054,0.9941,-0.015,-0.096,-0.025,-14.39,-0.44,0.7876,0.0952,0.6212,0.540,2.513,-1.009,-51.29,8.41,-0.16,-0.70,-0.54
896,1815.60,1670.55,1707.62,0.1038,0.0430,1.1855,0.135,-3.631,-0.797,-6.25,2.24,0.2532,-0.0132,0.9929,-0.046,0.011,0.066,-14.39,-0.45,0.7865,0.0946,0.6362,0.464,1.551,-1.070,-51.26,8.41,-0.15,-0.69,-0.54
921,1087.91,1306.30,1276.48,0.1206,0.0315,1.1973,0.242,-2.363,-1.378,-6.30,2.23,0.2585,-0.0120,0.9939,0.168,0.041,0.112,-14.39,-0.45,0.7866,0.1053,0.6345,-0.345,-0.449,-0.322,-51.26,8.43,-0.14,-0.67,-0.54
935,1619.78,1830.92,1746.30,0.1218,0.0376,1.1946,0.471,-0.745,0.210,-6.30,2.23,0.2578,-0.0100,0.9919,0.015,0.179,0.097,-14.39,-0.45,0.7942,0.1113,0.6271,-0.635,-0.877,0.671,-51.27,8.45,-0.12,-0.66,-0.54
950,2189.52,2248.35,2163.74,0.1167,0.0356,1.1951,0.593,-0.073,0.745,-6.29,2.23,0.2561,-0.0107,0.9949,-0.168,0.117,0.066,-14.39,-0.46,0.7874,0.1069,0.6251,-0.910,-1.212,2.136,-51.29,8.46,-0.11,-0.65,-0.54
975,886.45,840.51,888.06,0.1184,0.0386,1.1948,0.669,1.163,1.645,-6.25,2.24,0.2546,-0.0100,0.9941,0.229,-0.050,-0.010,-14.39,-0.46,0.7856,0.0869,0.6290,-1.017,-1.548,2.182,-51.32,8.42,-0.10,-0.64,-0.54
989,851.79,950.11,952.53,0.1172,0.0381,1.1885,0.685,0.843,1.386,-6.22,2.24,0.2568,-0.0085,0.9939,-0.015,0.179,-0.025,-14.39,-0.46,0.7770,0.0834,0.6238,-1.231,-2.006,1.663,-51.34,8.39,-0.10,-0.64,-0.54
1004,1119.34,1320.81,1286.96,0.1187,0.0371,1.1931,0.578,-0.226,0.500,-6.21,2.24,0.2566,-0.0073,0.9976,-0.076,0.240,0.005,-14.39,-0.46,0.7848,0.0820,0.6075,-0.727,-1.365,0.487,-51.38,8.37,-0.09,-0.64,-0.55
1029,1637.51,1492.45,1559.34,0.1147,0.0405,1.1848,0.593,-0.974,0.210,-6.22,2.25,0.2546,-0.0088,0.9929,-0.214,0.224,0.158,-14.38,-0.46,0.7850,0.0886,0.6040,0.128,0.818,-0.047,-51.37,8.37,-0.09,-0.64,-0.55
1043,1136.26,1021.03,1087.11,0.1160,0.0437,1.1902,0.578,-1.249,-0.110,-6.23,2.25,0.2507,-0.0093,0.9888,-0.076,-0.127,0.066,-14.38,-0.47,0.7831,0.0854,0.6176,0.403,1.826,-0.536,-51.35,8.37,-0.08,-0.64,-0.56
1058,885.64,840.51,889.67,0.1177,0.0374,1.1904,0.273,-1.936,-2.675,-6.25,2.25,0.2563,-0.0039,0.9954,-0.076,0.011,0.081,-14.38,-0.46,0.7830,0.0845,0.6293,0.479,1.520,-1.055,-51.32,8.36,-0.08,-0.64,-0.56
1083,2229.82,2257.22,2202.42,0.1274,0.0515,1.2048,-0.140,-9.722,-1.088,-6.48,2.25,0.2915,0.0193,0.9746,0.626,1.201,5.593,-14.40,-0.42,0.7845,0.0994,0.6284,0.006,0.345,-1.162,-51.30,8.37,-0.06,-0.62,-0.56
1097,2093.63,1972.75,1972.75,0.1230,0.0337,1.1919,-0.140,-5.829,-2.706,-6.55,2.23,0.2551,-0.0427,0.9927,0.382,0.362,3.150,-14.39,-0.45,0.7911,0.1100,0.6252,-0.070,0.177,-0.337,-51.30,8.40,-0.03,-0.59,-0.56
1112,1547.25,1407.03,1458.61,0.0559,0.0496,1.2129,0.593,1.606,-2.065,-6.45,2.24,0.2341,-0.0220,0.9900,0.611,0.316,4.616,-14.37,-0.46,0.7880,0.1105,0.6290,-0.513,-0.174,1.144,-51.30,8.43,-0.01,-0.57,-0.56
1136,1302.27,1526.30,1462.64,0.1287,0.0293,1.2000,0.166,-1.005,-1.851,-6.47,2.23,0.2444,-0.0161,0.9951,0.611,0.026,2.265,-14.35,-0.45,0.7850,0.0934,0.6354,-0.834,-0.999,1.587,-51.31,8.40,0.00,-0.56,-0.56
1151,1860.73,2023.52,1947.77,0.1292,0.0327,1.1931,0.639,1.957,0.027,-6.43,2.23,0.2673,-0.0027,0.9917,0.519,-0.096,2.204,-14.37,-0.44,0.7833,0.0908,0.6251,-0.940,-1.762,1.358,-51.33,8.39,0.02,-0.55,-0.56
1166,2256.41,2258.83,2196.78,0.1206,0.0386,1.1875,0.731,1.957,1.722,-6.39,2.23,0.2542,-0.0132,0.9963,0.885,-0.142,3.684,-14.37,-0.43,0.7815,0.0930,0.6185,-1.002,-1.671,0.823,-51.35,8.38,0.03,-0.54,-0.57
1191,862.27,842.12,895.31,0.1206,0.0378,1.1909,1.051,3.011,2.607,-6.30,2.25,0.2622,-0.0068,0.9939,1.221,-0.188,4.799,-14.38,-0.40,0.7854,0.0924,0.6074,-0.330,-0.052,0.747,-51.37,8.37,0.03,-0.54,-0.57
1205,904.18,1041.17,1021.83,0.1201,0.0405,1.1902,0.975,3.530,2.653,-6.24,2.26,0.2588,-0.0107,0.9956,1.191,-0.142,4.417,-14.39,-0.39,0.7800,0.0867,0.6188,-0.024,1.001,0.319,-51.35,8.37,0.03,-0.55,-0.57
1220,1272.45,1500.51,1420.73,0.0967,0.0427,1.1763,1.280,10.171,-0.172,-6.07,2.27,0.2498,-0.0203,0.9961,0.382,0.087,2.478,-14.38,-0.40,0.7799,0.0846,0.6277,0.006,1.032,-0.505,-51.33,8.35,0.01,-0.56,-0.58
1245,1443.30,1302.27,1354.65,0.1104,0.0396,1.1851,0.486,3.194,-1.775,-5.97,2.27,0.2061,-0.0229,0.9968,1.191,-0.295,4.219,-14.34,-0.39,0.7886,0.0967,0.6211,-0.040,0.375,-0.902,-51.32,8.36,-0.00,-0.58,-0.58
1259,1035.53,933.19,995.24,0.1067,0.0366,1.1860,0.578,2.171,-1.423,-5.93,2.27,0.2485,-0.0103,0.9917,0.397,-0.020,2.234,-14.33,-0.39,0.7904,0.1040,0.6228,-0.055,0.360,-0.444,-51.32,8.38,-0.02,-0.60,-0.58
1274,838.10,874.36,889.67,0.1108,0.0339,1.1902,0.456,-0.669,-0.797,-5.92,2.27,0.2756,-0.0132,0.9902,0.748,-0.157,3.807,-14.36,-0.39,0.7858,0.1024,0.6252,-0.238,0.207,0.640,-51.31,8.40,-0.04,-0.62,-0.58
1298,2253.99,2215.31,2176.63,0.1128,0.0369,1.1936,0.517,-1.096,-0.095,-5.94,2.27,0.2461,-0.0139,0.9932,1.069,-0.203,4.891,-14.35,-0.37,0.7833,0.0907,0.6356,-0.635,-0.846,1.205,-51.32,8.38,-0.06,-0.64,-0.59
1313,1944.54,1819.63,1831.72,0.1123,0.0413,1.1946,0.471,-1.142,0.088,-5.94,2.27,0.2576,-0.0059,0.9873,0.565,-0.066,4.310,-14.36,-0.36,0.7848,0.0907,0.6294,-0.864,-1.777,1.220,-51.34,8.36,-0.07,-0.66,-0.59
1328,1362.71,1237.00,1293.41,0.1091,0.0415,1.1936,0.486,-1.432,-0.126,-5.95,2.27,0.2224,-0.0071,1.0007,0.534,-0.112,2.784,-14.32,-0.35,0.7871,0.0895,0.6161,-0.940,-1.564,0.808,-51.37,8.35,-0.08,-0.68,-0.59
1352,1509.38,1733.41,1661.69,0.1143,0.0354,1.1941,0.318,-2.409,-1.057,-6.00,2.27,0.2485,-0.0037,0.9951,0.336,-0.005,1.791,-14.32,-0.34,0.7859,0.0903,0.6080,-0.376,-0.144,0.808,-51.38,8.34,-0.09,-0.69,-0.60
1367,2127.47,2212.89,2183.88,0.1160,0.0376,1.1995,0.227,-2.287,-0.767,-6.02,2.26,0.2546,-0.0078,0.9973,0.214,-0.157,0.326,-14.32,-0.34,0.7836,0.0850,0.6105,-0.009,0.894,0.441,-51.38,8.33,-0.09,-0.70,-0.61
1381,2207.25,2170.99,2146.01,0.1077,0.0327,1.1831,0.288,-2.730,0.149,-6.04,2.25,0.2585,-0.0090,0.9958,0.214,-0.035,0.020,-14.33,-0.34,0.7775,0.0869,0.6206,0.159,0.788,-0.413,-51.36,8.32,-0.10,-0.71,-0.61
1406,830.84,904.18,929.16,0.1196,0.0403,1.1907,0.379,-2.318,0.348,-6.09,2.26,0.2568,-0.0090,0.9973,0.382,-0.234,-0.010,-14.33,-0.34,0.7821,0.0981,0.6224,0.052,0.650,-0.917,-51.34,8.34,-0.10,-0.71,-0.62
1421,1029.89,1237.00,1198.32,0.1135,0.0349,1.1948,0.471,-1.081,0.393,-6.10,2.25,0.2578,-0.0120,0.9890,0.260,-0.157,0.097,-14.34,-0.34,0.7903,0.1049,0.6265,-0.009,0.726,-0.688,-51.33,8.36,-0.10,-0.72,-0.62
1435,1535.16,1768.06,1701.98,0.1133,0.0398,1.1934,0.471,-1.127,0.348,-6.10,2.25,0.2480,-0.0020,0.9954,0.595,0.209,3.852,-14.33,-0.33,0.7880,0.1031,0.6318,-0.085,0.650,0.380,-51.31,8.38,-0.10,-0.72,-0.62
1460,1226.52,1091.14,1162.05,0.1116,0.0369,1.1892,0.517,-1.676,0.241,-6.13,2.25,0.2590,0.0159,0.9897,-0.794,0.347,-2.743,-14.33,-0.32,0.7839,0.0983,0.6420,-0.498,-0.617,0.793,-51.31,8.37,-0.10,-0.71,-0.62
1475,906.59,875.16,915.46,0.1145,0.0359,1.1953,0.349,-4.226,0.378,-6.17,2.25,0.2678,0.0061,0.9917,-0.580,0.041,-2.148,-14.34,-0.32,0.7819,0.0968,0.6312,-1.047,-1.686,1.174,-51.32,8.37,-0.09,-0.71,-0.62
1489,838.10,911.43,942.05,0.1179,0.0339,1.1921,0.334,-3.478,0.363,-6.21,2.24,0.2549,-0.0205,0.9912,0.198,-0.142,0.173,-14.35,-0.33,0.7883,0.0985,0.6199,-1.032,-1.915,1.098,-51.35,8.36,-0.08,-0.70,-0.62
1514,2184.69,2088.79,2079.93,0.1177,0.0359,1.1897,0.471,-2.028,0.302,-6.25,2.24,0.2395,-0.0291,0.9983,-0.122,-0.157,-0.835,-14.34,-0.36,0.7858,0.0916,0.6123,-0.635,-0.663,1.449,-51.37,8.35,-0.07,-0.70,-0.62
1529,1663.30,1529.52,1571.43,0.1194,0.0330,1.1936,0.395,-2.180,0.332,-6.27,2.23,0.2510,0.0032,1.0017,-0.107,-0.218,-1.995,-14.33,-0.35,0.7827,0.0837,0.6160,-0.437,0.116,0.884,-51.38,8.33,-0.06,-0.69,-0.63
1543,1186.23,1070.18,1136.26,0.1172,0.0354,1.1895,0.395,-2.394,0.195,-6.29,2.23,0.2812,0.0034,0.9966,0.076,-0.035,-0.300,-14.36,-0.34,0.7805,0.0825,0.6199,-0.040,0.482,-0.123,-51.37,8.32,-0.05,-0.68,-0.63
1568,1735.02,1930.04,1862.34,0.1206,0.0405,1.1919,0.364,-1.707,0.287,-6.32,2.23,0.2661,0.0215,0.9900,0.595,-0.066,1.623,-14.38,-0.29,0.7848,0.0945,0.6168,0.235,0.986,-0.902,-51.35,8.33,-0.04,-0.67,-0.63
1583,2223.37,2255.60,2189.52,0.1187,0.0356,1.1938,0.379,-1.203,0.134,-6.33,2.23,0.2551,-0.0068,0.9856,0.107,0.087,0.478,-14.38,-0.29,0.7877,0.0995,0.6195,0.373,1.093,-1.085,-51.33,8.35,-0.04,-0.66,-0.63
1597,2138.75,2032.38,2025.93,0.1204,0.0386,1.1858,0.471,-0.715,0.378,-6.33,2.23,0.2588,-0.0068,0.9937,-0.046,0.102,0.051,-14.38,-0.30,0.7865,0.1025,0.6281,0.159,1.551,-0.215,-51.30,8.37,-0.03,-0.65,-0.62
1622,892.09,1012.97,1019.41,0.1206,0.0413,1.1926,0.547,-0.730,0.393,-6.33,2.23,0.2554,-0.0088,0.9939,-0.000,0.056,-0.025,-14.38,-0.30,0.7822,0.0983,0.6378,-0.391,0.024,0.319,-51.29,8.37,-0.02,-0.64,-0.62
1637,1262.78,1464.25,1408.64,0.1208,0.0393,1.1926,0.608,-0.638,0.302,-6.33,2.24,0.2495,-0.0085,0.9871,-0.015,0.011,0.005,-14.38,-0.30,0.7863,0.1011,0.6357,-0.727,-1.151,0.823,-51.29,8.37,-0.01,-0.62,-0.61
1651,1822.86,1996.12,1932.45,0.1169,0.0369,1.1902,0.639,-0.791,0.332,-6.33,2.24,0.2549,-0.0100,0.9971,-0.031,0.087,-0.010,-14.37,-0.31,0.7849,0.0999,0.6249,-0.773,-1.503,1.006,-51.31,8.38,-0.00,-0.61,-0.61
1676,1045.20,970.26,1026.67,0.1169,0.0378,1.1877,0.593,-0.791,0.348,-6.33,2.24,0.2595,-0.0071,0.9978,0.076,-0.020,0.097,-14.38,-0.31,0.7836,0.0966,0.6196,-1.002,-1.243,1.800,-51.34,8.36,0.00,-0.61,-0.61
1690,836.48,863.88,896.92,0.1201,0.0388,1.1853,0.502,-0.852,0.454,-6.33,2.24,0.2554,-0.0078,0.9912,-0.076,-0.005,-0.025,-14.38,-0.31,0.7834,0.0833,0.6182,-0.803,-1.060,1.587,-51.36,8.34,0.01,-0.60,-0.61
1705,904.18,1064.54,1050.04,0.1174,0.0398,1.1887,0.578,-0.821,0.180,-6.33,2.24,0.2507,-0.0107,0.9941,-0.015,-0.020,0.005,-14.38,-0.32,0.7828,0.0817,0.6166,-0.589,-0.556,0.808,-51.37,8.31,0.02,-0.60,-0.61
1730,1973.55,1842.20,1873.63,0.1182,0.0396,1.1907,0.547,-0.653,0.363,-6.33,2.25,0.2527,-0.0088,0.9885,0.031,-0.066,-0.056,-14.38,-0.32,0.7830,0.0856,0.6123,-0.131,0.284,-0.398,-51.37,8.30,0.02,-0.59,-0.61
1744,1392.53,1256.34,1315.97,0.1223,0.0376,1.1899,0.578,-0.653,0.256,-6.33,2.25,0.2583,-0.0085,0.9895,0.137,-0.081,0.204,-14.38,-0.32,0.7865,0.0934,0.6144,0.113,0.833,-0.810,-51.36,8.31,0.03,-0.59,-0.61
1759,1004.91,915.46,971.06,0.1196,0.0400,1.1917,0.456,-0.516,0.454,-6.33,2.25,0.2595,-0.0112,0.9968,0.076,-0.035,0.158,-14.39,-0.33,0.7864,0.0969,0.6212,0.403,1.749,-0.581,-51.34,8.33,0.03,-0.58,-0.61
1784,2062.20,2188.72,2113.77,0.1160,0.0386,1.1943,0.654,-0.455,0.393,-6.32,2.26,0.2578,-0.0076,0.9919,-0.046,0.117,-0.010,-14.39,-0.33,0.7822,0.0990,0.6381,0.311,1.062,-0.688,-51.30,8.34,0.03,-0.57,-0.61
1798,2237.88,2191.14,2149.23,0.1206,0.0378,1.1946,0.593,-0.379,0.409,-6.32,2.26,0.2551,-0.0095,0.9946,0.076,0.056,0.005,-14.39,-0.34,0.7861,0.1027,0.6390,-0.345,0.024,-0.108,-51.28,8.36,0.04,-0.57,-0.60
1813,1867.18,1729.38,1763.22,0.1189,0.0383,1.1868,0.700,0.018,1.004,-6.31,2.26,0.2568,-0.0059,0.9934,0.031,-0.020,-0.071,-14.39,-0.34,0.7896,0.1063,0.6322,-0.498,-0.724,0.411,-51.28,8.37,0.04,-0.56,-0.60
1837,1052.45,1237.00,1217.66,0.1152,0.0359,1.1963,0.669,-0.470,0.561,-6.30,2.26,0.2551,-0.0115,0.9951,-0.137,-0.035,-0.621,-14.39,-0.35,0.7849,0.1013,0.6262,-0.879,-1.060,1.922,-51.30,8.37,0.04,-0.56,-0.60
1852,1601.25,1795.46,1740.66,0.1177,0.0383,1.1863,0.502,-0.455,0.516,-6.30,2.26,0.2585,-0.0103,0.9946,0.061,-0.020,-0.346,-14.39,-0.35,0.7819,0.0928,0.6241,-0.895,-1.533,1.800,-51.32,8.36,0.04,-0.55,-0.59
1866,2164.54,2258.02,2158.90,0.1174,0.0361,1.1946,0.547,-0.745,0.317,-6.29,2.26,0.2627,-0.0110,0.9985,0.015,0.117,-0.239,-14.40,-0.36,0.7812,0.0856,0.6219,-0.986,-1.396,1.541,-51.34,8.33,0.04,-0.55,-0.59
1891,910.62,851.79,915.46,0.1150,0.0374,1.1934,0.502,-0.806,0.287,-6.30,2.26,0.2537,-0.0090,0.9956,-0.061,0.209,0.081,-14.39,-0.36,0.7852,0.0869,0.6104,-0.406,-0.693,0.243,-51.37,8.32,0.04,-0.56,-0.59
1906,830.84,928.35,937.22,0.1235,0.0398,1.1929,0.547,-0.638,0.348,-6.30,2.26,0.2576,-0.0081,0.9846,-0.076,0.087,0.112,-14.40,-0.36,0.7849,0.0892,0.6082,-0.223,0.513,-0.246,-51.37,8.31,0.04,-0.56,-0.60
1920,1086.30,1318.39,1285.35,0.1218,0.0400,1.1865,0.608,-0.745,0.287,-6.30,2.27,0.2585,-0.0078,0.9905,-0.092,0.056,0.173,-14.40,-0.37,0.7839,0.0929,0.6189,0.373,1.520,-0.551,-51.35,8.32,0.04,-0.56,-0.60
1945,1623.00,1490.04,1541.61,0.1147,0.0364,1.1904,0.700,-1.111,0.256,-6.31,2.27,0.2534,-0.0076,0.9929,0.015,0.056,0.066,-14.40,-0.37,0.7799,0.0907,0.6383,0.449,1.642,-0.673,-51.29,8.33,0.04,-0.55,-0.59
1960,1121.76,997.66,1072.60,0.1172,0.0388,1.1907,0.593,-1.249,0.027,-6.31,2.27,0.2520,-0.0063,0.9922,-0.046,0.026,0.127,-14.39,-0.37,0.7848,0.0950,0.6354,-0.070,0.528,-0.444,-51.27,8.33,0.04,-0.55,-0.59
1974,850.99,823.59,876.78,0.1123,0.0376,1.1863,0.532,-1.356,0.180,-6.32,2.27,0.2539,-0.0112,0.9905,0.076,-0.035,0.097,-14.39,-0.37,0.7861,0.0977,0.6296,-0.391,-0.251,0.167,-51.27,8.34,0.04,-0.54,-0.58
1999,2277.36,2292.67,2231.43,0.1245,0.0374,1.1997,0.074,-5.661,0.302,-6.44,2.26,0.2520,-0.0088,0.9966,0.061,-0.081,0.112,-14.39,-0.37,0.7882,0.1025,0.6206,-0.711,-1.151,0.945,-51.30,8.34,0.05,-0.53,-0.58
2013,2109.74,1975.97,1998.53,0.1267,0.0374,1.1892,0.395,-1.951,0.424,-6.47,2.26,0.2549,-0.0103,0.9934,-0.076,-0.081,0.066,-14.39,-0.38,0.7854,0.0981,0.6205,-0.635,-0.770,1.052,-51.31,8.34,0.06,-0.51,-0.58
2028,1533.55,1372.38,1414.29,0.1245,0.0337,1.1921,0.425,-0.577,0.332,-6.46,2.25,0.2546,-0.0112,0.9915,0.122,-0.173,0.142,-14.40,-0.38,0.7880,0.0962,0.6154,-0.421,-0.632,0.976,-51.33,8.35,0.07,-0.50,-0.58
2053,1328.06,1552.89,1484.40,0.1201,0.0427,1.1836,1.127,3.331,3.416,-6.37,2.28,0.2568,-0.0112,0.9951,0.076,0.117,0.142,-14.39,-0.39,0.7867,0.0880,0.6208,-0.589,-0.373,0.777,-51.34,8.33,0.08,-0.50,-0.58
2067,1957.44,2112.16,2033.99,0.1191,0.0342,1.1895,0.898,2.507,2.546,-6.32,2.28,0.2517,-0.0122,0.9998,-0.000,0.133,0.051,-14.39,-0.39,0.7869,0.0858,0.6268,-0.437,-0.373,0.747,-51.34,8.31,0.08,-0.50,-0.58
2082,2289.45,2282.20,2238.68,0.1147,0.0349,1.1851,0.776,1.560,1.661,-6.28,2.28,0.2556,-0.0093,0.9949,0.015,-0.005,0.112,-14.39,-0.40,0.7816,0.0880,0.6219,-0.482,-0.296,0.518,-51.34,8.30,0.07,-0.51,-0.58
2107,809.89,838.90,867.11,0.1189,0.0381,1.1897,0.685,0.675,1.096,-6.25,2.28,0.2583,-0.0078,0.9944,0.076,-0.173,0.127,-14.40,-0.39,0.7817,0.0930,0.6219,-0.299,0.238,0.014,-51.34,8.30,0.07,-0.51,-0.58
2121,929.16,1101.61,1084.69,0.1182,0.0388,1.1860,0.685,-0.134,0.683,-6.24,2.29,0.2566,-0.0103,0.9958,0.153,-0.066,0.188,-14.40,-0.40,0.7861,0.0931,0.6198,-0.070,0.329,-0.169,-51.33,8.30,0.06,-0.52,-0.58
2136,1431.21,1646.37,1594.80,0.1172,0.0410,1.1873,0.700,-0.684,0.561,-6.24,2.29,0.2595,-0.0359,0.9905,0.473,-0.005,1.898,-14.40,-0.42,0.7847,0.0944,0.6218,0.052,1.032,-0.230,-51.32,8.31,0.06,-0.52,-0.58
2160,1320.00,1173.33,1237.00,0.1208,0.0369,1.2012,0.517,-0.821,0.409,-6.25,2.29,0.2566,-0.0039,0.9915,0.397,-0.218,1.471,-14.41,-0.41,0.7893,0.0983,0.6320,0.052,0.467,-0.246,-51.30,8.32,0.05,-0.52,-0.58
2175,913.85,852.60,905.79,0.1191,0.0381,1.1924,0.624,-0.837,0.302,-6.25,2.29,0.2576,0.0132,0.9956,0.595,0.179,2.829,-14.41,-0.38,0.7850,0.0974,0.6305,-0.330,0.162,0.167,-51.29,8.33,0.05,-0.52,-0.57
2190,796.19,856.63,876.78,0.1172,0.0413,1.1917,0.456,-0.653,0.302,-6.25,2.29,0.2588,0.0002,0.9954,0.809,0.285,4.539,-14.41,-0.36,0.7854,0.0983,0.6342,-0.284,-0.587,0.258,-51.29,8.33,0.04,-0.53,-0.57
2214,2273.33,2195.16,2166.96,0.1191,0.0339,1.1865,0.517,-0.730,0.287,-6.26,2.29,0.2471,0.0222,0.9941,1.450,0.163,7.059,-14.40,-0.29,0.7782,0.0970,0.6230,-0.864,-1.090,1.190,-51.31,8.32,0.04,-0.53,-0.57
2229,1819.63,1678.61,1699.56,0.1189,0.0398,1.1873,0.547,-0.730,0.348,-6.26,2.29,0.2446,0.0068,0.9949,1.176,-0.081,5.593,-14.39,-0.26,0.7892,0.0911,0.6204,-0.574,-1.228,0.930,-51.33,8.31,0.04,-0.53,-0.57
2243,1258.75,1107.25,1185.42,0.1206,0.0325,1.1882,0.639,-1.005,0.225,-6.26,2.29,0.2502,-0.0049,0.9946,0.397,0.087,1.684,-14.38,-0.25,0.7842,0.0883,0.6157,-0.681,-0.602,1.220,-51.34,8.30,0.04,-0.53,-0.57
2268,1673.77,1867.99,1796.26,0.1160,0.0364,1.1914,0.639,-0.653,0.454,-6.26,2.29,0.2534,-0.0071,0.9910,0.168,0.011,0.097,-14.38,-0.25,0.7867,0.0881,0.6188,-0.284,0.146,0.335,-51.34,8.29,0.04,-0.54,-0.57
2283,2258.83,2307.99,2243.52,0.1167,0.0349,1.1870,0.624,-0.715,0.363,-6.26,2.29,0.2554,-0.0105,0.9944,-0.015,0.041,0.051,-14.38,-0.26,0.7833,0.0892,0.6163,-0.299,0.253,0.212,-51.34,8.28,0.04,-0.54,-0.58
2297,2216.12,2125.86,2114.58,0.1187,0.0403,1.1929,0.563,-0.592,0.500,-6.26,2.29,0.2588,-0.0078,0.9968,-0.153,-0.020,0.066,-14.38,-0.27,0.7866,0.0891,0.6196,0.037,0.528,-0.337,-51.34,8.28,0.03,-0.54,-0.58
2322,834.07,937.22,941.25,0.1157,0.0391,1.1868,0.700,0.553,1.233,-6.23,2.30,0.2559,-0.0115,0.9873,-0.046,0.056,0.066,-14.38,-0.28,0.7859,0.0984,0.6262,0.037,0.665,-0.490,-51.32,8.30,0.03,-0.55,-0.58
2336,1172.53,1407.84,1390.11,0.1165,0.0432,1.1860,0.715,0.171,1.080,-6.22,2.30,0.2585,-0.0081,0.9900,0.122,0.133,0.005,-14.39,-0.28,0.7841,0.0973,0.6233,0.006,0.742,-0.200,-51.30,8.31,0.03,-0.55,-0.58
2351,1832.53,2011.43,1937.29,0.1143,0.0435,1.1868,0.669,-0.257,0.760,-6.20,2.31,0.2585,-0.0044,0.9902,-0.000,0.026,0.066,-14.39,-0.28,0.7822,0.1003,0.6327,-0.070,0.284,-0.093,-51.29,8.32,0.02,-0.55,-0.57
2376,1069.38,946.89,992.82,0.1162,0.0400,1.1953,0.624,-0.944,0.256,-6.21,2.32,0.2556,-0.0083,0.9949,0.107,-0.157,0.066,-14.40,-0.28,0.7819,0.0988,0.6285,-0.528,-0.419,0.945,-51.29,8.32,0.02,-0.55,-0.57
2390,791.36,787.33,838.10,0.1191,0.0405,1.1948,0.624,-0.959,0.195,-6.22,2.32,0.2642,-0.0276,0.9893,0.107,0.011,0.356,-14.41,-0.30,0.7832,0.0962,0.6282,-0.650,-1.014,0.686,-51.30,8.32,0.01,-0.56,-0.57
2405,840.51,979.12,963.81,0.1145,0.0371,1.1909,0.517,-1.264,0.164,-6.22,2.31,0.2515,-0.0024,0.9966,0.534,-0.203,2.234,-14.40,-0.29,0.7867,0.0918,0.6218,-0.773,-1.136,1.434,-51.31,8.31,0.01,-0.56,-0.57
2430,2094.43,1964.69,1962.27,0.0894,0.0417,1.1599,0.273,-3.875,0.439,-6.28,2.32,0.2566,-0.0059,0.9895,-0.137,0.041,0.310,-14.41,-0.30,0.7866,0.0889,0.6132,-0.589,-0.892,0.838,-51.35,8.29,0.01,-0.56,-0.57
2444,1461.83,1302.27,1355.46,0.1265,0.0354,1.1936,0.334,-4.119,0.332,-6.33,2.31,0.2590,-0.0103,0.9912,-0.137,0.087,-0.041,-14.41,-0.30,0.7859,0.0889,0.6169,-0.605,-0.358,0.869,-51.36,8.28,0.01,-0.56,-0.57
2459,1018.61,894.51,952.53,0.1099,0.0347,1.1973,0.471,-0.653,-0.431,-6.32,2.30,0.2600,-0.0098,0.9968,0.015,0.255,-0.025,-14.41,-0.31,0.7832,0.0883,0.6094,-0.009,0.162,-0.047,-51.36,8.28,0.02,-0.56,-0.57
2484,2050.11,2204.84,2106.52,0.1182,0.0361,1.1917,0.685,0.263,0.409,-6.30,2.31,0.2581,-0.0115,0.9880,-0.092,0.255,-0.010,-14.41,-0.32,0.7823,0.0917,0.6234,0.113,1.017,-0.429,-51.33,8.29,0.02,-0.55,-0.57
2498,2307.99,2287.84,2260.44,0.1152,0.0364,1.1914,0.853,0.812,1.355,-6.27,2.31,0.2581,-0.0105,0.9905,-0.168,0.224,-0.178,-14.41,-0.33,0.7865,0.0927,0.6222,0.266,0.955,-0.688,-51.32,8.29,0.02,-0.55,-0.57
2513,2003.37,1843.81,1877.66,0.1174,0.0359,1.1953,0.761,1.224,1.554,-6.24,2.31,0.2463,-0.0042,0.9890,-0.687,0.056,-3.430,-14.40,-0.34,0.7865,0.1002,0.6265,0.037,0.986,-0.444,-51.30,8.31,0.01,-0.55,-0.57
2537,979.12,1146.74,1138.68,0.1179,0.0369,1.1855,0.776,0.507,1.096,-6.22,2.32,0.2593,-0.0090,0.9929,-0.565,-0.005,-3.384,-14.40,-0.35,0.7854,0.1005,0.6339,-0.376,0.116,0.335,-51.29,8.32,0.01,-0.56,-0.57
2552,1532.75,1751.94,1690.70,0.1177,0.0339,1.1914,0.669,0.079,0.821,-6.21,2.31,0.2527,-0.0093,0.9910,-0.443,-0.020,-2.071,-14.40,-0.36,0.7827,0.1002,0.6309,-0.650,-0.510,0.640,-51.28,8.32,0.00,-0.56,-0.56
2566,2162.93,2268.50,2178.24,0.1152,0.0396,1.1870,0.654,-0.180,0.653,-6.20,2.31,0.2559,-0.0120,0.9910,-0.199,-0.142,-1.491,-14.41,-0.37,0.7830,0.1010,0.6309,-0.696,-1.151,1.098,-51.29,8.33,-0.00,-0.56,-0.56
2591,917.07,821.17,873.55,0.1130,0.0374,1.1924,0.639,-0.669,0.378,-6.20,2.32,0.2571,-0.0093,0.9907,-0.107,-0.020,-0.545,-14.41,-0.38,0.7821,0.0930,0.6217,-0.742,-1.487,1.235,-51.33,8.31,-0.01,-0.57,-0.56
2606,786.52,869.52,878.39,0.1138,0.0352,1.1895,0.517,-0.928,0.302,-6.19,2.31,0.2585,-0.0120,0.9932,0.092,-0.020,-0.285,-14.41,-0.38,0.7831,0.0891,0.6147,-0.864,-1.106,1.358,-51.35,8.30,-0.01,-0.57,-0.56
2621,988.79,1187.84,1166.08,0.1133,0.0376,1.1902,0.547,-0.928,0.317,-6.19,2.31,0.2559,-0.0110,0.9910,-0.000,-0.127,0.066,-14.42,-0.39,0.7809,0.0868,0.6167,-0.620,-0.724,0.777,-51.36,8.28,-0.02,-0.58,-0.56
2645,1818.02,1661.69,1700.37,0.1172,0.0376,1.1968,0.547,-0.867,0.256,-6.20,2.31,0.2556,-0.0085,0.9939,0.198,-0.081,0.051,-14.42,-0.39,0.7821,0.0844,0.6121,-0.116,0.467,-0.047,-51.35,8.27,-0.02,-0.58,-0.56
2660,1237.00,1100.00,1173.33,0.1199,0.0405,1.1917,0.547,-1.020,0.180,-6.21,2.31,0.2568,-0.0132,0.9910,0.260,-0.417,0.036,-14.43,-0.39,0.7841,0.0908,0.6160,0.189,1.047,-0.688,-51.34,8.28,-0.02,-0.59,-0.56
2674,875.97,808.28,872.75,0.1177,0.0396,1.1899,0.669,-0.913,0.195,-6.21,2.32,0.2568,-0.0076,0.9929,0.168,-0.234,0.112,-14.43,-0.39,0.7861,0.0951,0.6187,0.342,1.276,-0.749,-51.33,8.29,-0.03,-0.59,-0.56
2699,2242.71,2297.51,2232.23,0.1140,0.0364,1.1797,0.517,-0.821,0.134,-6.21,2.32,0.2585,-0.0103,0.9939,0.046,-0.035,0.219,-14.44,-0.39,0.7866,0.1025,0.6299,0.159,0.788,-0.398,-51.30,8.31,-0.03,-0.59,-0.56
2714,2226.59,2126.67,2113.77,0.1182,0.0359,1.1909,0.563,-0.898,0.409,-6.22,2.31,0.2593,-0.0117,0.9951,0.214,-0.035,-0.102,-14.44,-0.39,0.7852,0.1006,0.6323,-0.223,0.253,0.060,-51.29,8.32,-0.04,-0.59,-0.55
2729,1768.06,1610.92,1654.43,0.1155,0.0371,1.1951,0.608,-0.852,0.073,-6.22,2.31,0.2563,-0.0061,0.9958,0.061,-0.203,0.005,-14.44,-0.39,0.7889,0.0994,0.6327,-0.528,-0.541,0.594,-51.29,8.33,-0.04,-0.59,-0.55
2753,1135.46,1349.01,1307.11,0.1143,0.0378,1.1853,0.547,-0.913,0.134,-6.22,2.31,0.2571,-0.0081,0.9941,-0.000,0.072,-0.071,-14.44,-0.39,0.7870,0.0980,0.6252,-0.818,-1.365,1.235,-51.32,8.32,-0.04,-0.59,-0.55
2768,1721.32,1916.34,1843.81,0.1123,0.0430,1.1907,0.486,-0.882,0.103,-6.22,2.32,0.2551,-0.0068,0.9983,0.031,0.026,0.066,-14.44,-0.39,0.7859,0.0946,0.6222,-0.940,-1.426,1.556,-51.34,8.31,-0.04,-0.59,-0.55
2783,2241.10,2278.97,2207.25,0.1182,0.0359,1.1929,0.440,-0.944,-0.004,-6.22,2.31,0.2568,-0.0095,0.9958,0.076,-0.005,-0.025,-14.44,-0.39,0.7819,0.0902,0.6182,-0.742,-1.167,1.281,-51.36,8.30,-0.05,-0.59,-0.55
2808,863.88,841.32,872.75,0.1160,0.0364,1.1909,0.471,-0.699,0.164,-6.23,2.31,0.2598,-0.0095,0.9905,0.153,-0.142,-0.056,-14.45,-0.39,0.7832,0.0836,0.6194,-0.421,-0.174,0.609,-51.36,8.28,-0.05,-0.60,-0.55
2822,813.92,927.55,941.25,0.1177,0.0364,1.1921,0.639,-0.730,0.180,-6.22,2.31,0.2573,-0.0078,0.9966,0.214,-0.157,-0.010,-14.45,-0.39,0.7853,0.0872,0.6139,-0.055,0.131,-0.154,-51.37,8.28,-0.05,-0.60,-0.55
2837,1128.21,1343.37,1303.88,0.1145,0.0374,1.1929,0.471,-0.760,0.378,-6.22,2.31,0.2566,-0.0127,0.9883,0.275,-0.234,0.097,-14.46,-0.39,0.7867,0.0889,0.6168,0.021,0.955,-0.444,-51.36,8.27,-0.05,-0.60,-0.55
2861,1583.52,1431.21,1509.38,0.1172,0.0376,1.1895,0.532,-0.791,0.195,-6.23,2.31,0.2439,-0.0464,0.9985,0.565,-0.112,2.112,-14.44,-0.43,0.7850,0.0958,0.6230,0.052,1.154,-0.612,-51.33,8.29,-0.06,-0.60,-0.55
2876,1091.94,959.78,1043.59,0.1177,0.0403,1.1877,0.593,-0.913,0.256,-6.23,2.31,0.2615,-0.0012,0.9915,1.695,-0.157,8.158,-14.45,-0.40,0.7842,0.0978,0.6259,-0.009,0.910,-0.291,-51.31,8.30,-0.06,-0.60,-0.54
2890,830.84,810.70,866.30,0.1189,0.0361,1.1902,0.563,-1.066,0.317,-6.23,2.31,0.2629,-0.0042,1.0010,0.931,-0.127,3.791,-14.46,-0.38,0.7849,0.1006,0.6301,-0.085,0.360,-0.062,-51.30,8.31,-0.06,-0.60,-0.54
2915,2291.06,2295.09,2229.82,0.1052,0.0396,1.1785,0.410,-1.692,0.057,-6.25,2.31,0.2605,-0.0081,0.9968,0.153,-0.005,0.799,-14.46,-0.38,0.7859,0.1006,0.6248,-0.528,-0.525,0.686,-51.31,8.31,-0.06,-0.60,-0.54
2930,2121.83,1999.34,1994.51,0.1211,0.0391,1.1926,0.257,-3.982,0.348,-6.30,2.30,0.2595,-0.0105,0.9973,0.076,-0.066,0.173,-14.47,-0.38,0.7889,0.0964,0.6272,-0.757,-1.090,0.961,-51.32,8.31,-0.06,-0.59,-0.53
2944,1536.78,1379.63,1439.27,0.1204,0.0342,1.1917,0.502,-1.020,0.348,-6.30,2.30,0.2588,-0.0088,0.9893,0.168,-0.020,0.020,-14.47,-0.38,0.7842,0.0996,0.6219,-0.803,-0.922,1.174,-51.33,8.32,-0.06,-0.59,-0.53
2969,1281.32,1497.29,1449.74,0.1143,0.0361,1.1870,0.547,-0.455,0.271,-6.30,2.30,0.2520,-0.0090,0.9934,0.107,-0.066,0.219,-14.47,-0.38,0.7836,0.0917,0.6187,-0.635,-0.617,1.113,-51.35,8.30,-0.05,-0.58,-0.53
2984,1944.54,2093.63,2015.46,0.1152,0.0383,1.1892,0.731,0.446,1.294,-6.28,2.30,0.2510,-0.0085,0.9944,0.275,-0.035,1.226,-14.46,-0.38,0.7833,0.0889,0.6184,-0.574,-0.403,0.655,-51.36,8.29,-0.05,-0.58,-0.53
2998,2279.78,2274.95,2221.76,0.1155,0.0388,1.1917,0.731,0.873,0.989,-6.25,2.30,0.2556,-0.0105,0.9983,0.550,-0.020,2.127,-14.46,-0.38,0.7876,0.0896,0.6172,-0.223,0.055,0.258,-51.36,8.29,-0.06,-0.59,-0.53
3023,801.83,824.40,880.81,0.1216,0.0388,1.1902,0.608,1.453,0.225,-6.21,2.31,0.2590,-0.0105,0.9922,0.595,-0.081,2.371,-14.47,-0.37,0.7842,0.0920,0.6184,0.006,0.574,-0.429,-51.35,8.29,-0.06,-0.59,-0.53
3038,918.68,1075.82,1084.69,0.1165,0.0356,1.1936,0.502,0.217,0.348,-6.19,2.30,0.2620,-0.0076,0.9880,0.290,0.056,1.471,-14.47,-0.36,0.7848,0.0938,0.6228,0.113,0.833,-0.490,-51.33,8.30,-0.07,-0.59,-0.53
3052,1394.95,1611.72,1573.85,0.1130,0.0403,1.1836,0.502,-0.226,0.348,-6.18,2.30,0.2578,-0.0115,0.9915,0.244,-0.035,0.539,-14.48,-0.37,0.7856,0.0984,0.6250,0.052,0.757,-0.444,-51.32,8.31,-0.07,-0.60,-0.53
3077,1353.85,1188.64,1274.87,0.1147,0.0376,1.1909,0.517,-0.669,0.241,-6.18,2.31,0.2576,-0.0088,0.9973,0.122,-0.005,0.066,-14.48,-0.37,0.7834,0.1016,0.6329,-0.177,0.223,0.136,-51.30,8.33,-0.08,-0.60,-0.52
3091,923.52,842.93,914.65,0.1130,0.0359,1.1938,0.547,-0.776,0.363,-6.18,2.30,0.2551,-0.0093,0.9929,0.137,0.011,0.051,-14.47,-0.37,0.7870,0.0989,0.6340,-0.452,-0.510,0.472,-51.30,8.33,-0.08,-0.60,-0.52
3106,805.05,846.96,884.84,0.1150,0.0386,1.1887,0.502,-0.837,0.287,-6.18,2.30,0.2549,-0.0122,0.9841,0.092,0.056,-0.087,-14.47,-0.37,0.7855,0.0995,0.6331,-0.681,-0.739,1.067,-51.30,8.33,-0.09,-0.60,-0.51
3131,2266.08,2166.96,2161.32,0.1172,0.0391,1.1904,0.578,-0.867,0.302,-6.19,2.31,0.2590,-0.0122,0.9924,0.015,-0.020,-0.071,-14.48,-0.38,0.7882,0.0931,0.6229,-0.711,-1.045,1.235,-51.33,8.32,-0.09,-0.61,-0.51
3145,1819.63,1664.91,1714.87,0.1160,0.0386,1.1882,0.440,-0.913,0.088,-6.19,2.30,0.2551,-0.0112,0.9932,0.122,0.026,-0.087,-14.48,-0.38,0.7880,0.0896,0.6180,-0.742,-0.724,1.037,-51.34,8.31,-0.10,-0.61,-0.51
3160,1253.11,1120.15,1178.17,0.1172,0.0344,1.1904,0.532,-0.760,0.363,-6.19,2.30,0.2551,-0.0093,0.9944,-0.015,0.102,-0.025,-14.47,-0.39,0.7876,0.0874,0.6144,-0.482,-0.495,0.655,-51.36,8.30,-0.10,-0.61,-0.51
3185,1655.24,1855.09,1805.13,0.1160,0.0352,1.1873,0.471,-0.776,0.393,-6.19,2.30,0.2559,-0.0081,0.9888,0.015,0.102,0.051,-14.47,-0.39,0.7816,0.0884,0.6172,-0.131,0.314,0.029,-51.35,8.29,-0.10,-0.62,-0.51
3199,2248.35,2291.06,2230.62,0.1133,0.0364,1.1914,0.654,-0.638,0.393,-6.19,2.30,0.2515,-0.0110,0.9988,-0.031,-0.066,-0.209,-14.47,-0.39,0.7858,0.0927,0.6217,0.006,0.711,-0.322,-51.34,8.29,-0.11,-0.62,-0.51
3214,2214.51,2096.04,2104.10,0.1184,0.0400,1.1914,0.440,-0.562,0.439,-6.18,2.30,0.2671,-0.0154,0.9858,-1.313,0.102,-6.132,-14.48,-0.42,0.7847,0.0944,0.6266,0.067,0.803,-0.398,-51.32,8.30,-0.11,-0.62,-0.51
3238,817.14,939.63,946.08,0.1160,0.0386,1.1946,0.563,-0.730,0.332,-6.19,2.30,0.2568,-0.0100,1.0010,0.031,-0.096,-0.422,-14.48,-0.42,0.7865,0.0951,0.6310,0.021,0.559,-0.383,-51.30,8.31,-0.11,-0.62,-0.51
3253,1170.11,1411.06,1356.26,0.1206,0.0381,1.1921,0.502,-0.669,0.393,-6.19,2.30,0.2539,-0.0088,0.9875,-0.031,-0.005,-0.163,-14.48,-0.43,0.7843,0.1002,0.6317,-0.208,0.314,0.060,-51.29,8.32,-0.11,-0.62,-0.51
3268,1761.61,1946.96,1873.63,0.1172,0.0383,1.1873,0.547,-0.867,0.256,-6.19,2.30,0.2566,-0.0076,1.0012,0.107,-0.173,-0.178,-14.48,-0.42,0.7860,0.1005,0.6306,-0.360,-0.327,0.350,-51.29,8.33,-0.12,-0.62,-0.50
3292,1082.27,954.14,1052.45,0.1184,0.0381,1.1963,0.593,-0.791,0.241,-6.20,2.30,0.2566,-0.0090,0.9939,0.107,-0.066,-0.071,-14.48,-0.42,0.7874,0.0986,0.6250,-0.666,-0.938,1.083,-51.31,8.32,-0.12,-0.62,-0.50
3307,809.08,809.89,838.10,0.1191,0.0393,1.1899,0.563,-0.821,0.317,-6.20,2.30,0.2588,-0.0105,0.9939,0.015,0.133,-0.010,-14.48,-0.43,0.7866,0.0950,0.6211,-0.834,-1.029,1.266,-51.32,8.32,-0.12,-0.62,-0.50
3321,871.94,975.90,991.21,0.1155,0.0347,1.1904,0.624,-0.821,0.210,-6.20,2.30,0.2559,-0.0122,0.9919,-0.092,0.133,-0.071,-14.48,-0.43,0.7825,0.0909,0.6204,-0.757,-1.167,1.235,-51.34,8.31,-0.12,-0.62,-0.50
3346,2100.88,1938.10,1954.21,0.1123,0.0325,1.1941,0.669,-0.730,0.271,-6.20,2.30,0.2524,-0.0090,0.9895,0.046,-0.020,-0.163,-14.47,-0.43,0.7836,0.0850,0.6150,-0.498,-0.632,0.655,-51.36,8.29,-0.12,-0.62,-0.50
3361,1461.83,1302.27,1364.32,0.1145,0.0361,1.1958,0.731,-0.226,0.806,-6.19,2.30,0.2561,-0.0066,0.9939,0.153,0.056,-0.117,-14.47,-0.43,0.7844,0.0851,0.6146,-0.223,0.253,0.197,-51.36,8.28,-0.12,-0.63,-0.50
3375,1018.61,904.18,953.33,0.1167,0.0381,1.1892,0.807,0.598,1.370,-6.17,2.30,0.2544,-0.0081,0.9922,0.137,-0.096,-0.102,-14.47,-0.43,0.7838,0.0903,0.6172,-0.024,0.604,-0.322,-51.36,8.28,-0.13,-0.63,-0.50
3400,1998.53,2153.26,2062.20,0.1147,0.0417,1.1873,0.669,0.690,0.867,-6.14,2.31,0.2588,-0.0044,0.9883,-0.015,0.087,-0.102,-14.47,-0.43,0.7860,0.0919,0.6271,0.296,1.047,-0.734,-51.33,8.28,-0.13,-0.63,-0.50
3415,2325.71,2319.27,2274.95,0.1118,0.0378,1.1895,0.685,0.537,0.790,-6.12,2.31,0.2561,-0.0042,0.9927,0.183,-0.081,-0.087,-14.48,-0.42,0.7843,0.0967,0.6321,0.144,1.093,-0.566,-51.30,8.30,-0.14,-0.64,-0.50
3429,2057.36,1893.77,1917.14,0.1128,0.0396,1.1892,0.685,0.644,0.882,-6.09,2.31,0.2590,-0.0085,0.9875,-0.061,-0.020,0.051,-14.48,-0.42,0.7838,0.1003,0.6293,0.006,0.391,-0.108,-51.29,8.31,-0.14,-0.64,-0.50
3454,920.29,1093.55,1069.38,0.1111,0.0378,1.1926,0.593,0.079,0.806,-6.08,2.32,0.2578,-0.0081,0.9880,0.046,0.026,0.005,-14.48,-0.42,0.7869,0.1012,0.6348,-0.544,-0.648,0.808,-51.29,8.31,-0.15,-0.65,-0.49
3468,1490.04,1737.44,1656.04,0.1160,0.0391,1.1914,0.639,-0.211,0.531,-6.07,2.32,0.2542,-0.0112,0.9856,0.107,-0.020,-0.041,-14.48,-0.43,0.7888,0.0988,0.6267,-0.650,-0.938,1.037,-51.30,8.32,-0.16,-0.65,-0.49
3483,2166.96,2299.93,2222.56,0.1135,0.0378,1.1956,0.547,-0.547,0.439,-6.06,2.32,0.2539,-0.0139,0.9885,0.137,-0.050,-0.117,-14.48,-0.43,0.7856,0.0983,0.6270,-0.818,-1.365,1.373,-51.32,8.32,-0.17,-0.66,-0.49
3508,859.05,724.47,778.46,0.1104,0.0378,1.1936,0.517,-1.050,0.241,-6.07,2.32,0.2556,-0.0112,0.9983,0.122,0.087,0.036,-14.48,-0.43,0.7861,0.0905,0.6141,-0.818,-1.426,1.205,-51.36,8.30,-0.18,-0.67,-0.49
3522,721.25,742.20,740.59,0.1138,0.0354,1.1973,0.440,-0.974,0.057,-6.07,2.31,0.2576,-0.0149,0.9897,-0.076,0.026,0.005,-14.48,-0.44,0.7841,0.0898,0.6144,-0.605,-0.449,1.006,-51.37,8.29,-0.18,-0.68,-0.50
3537,946.08,1143.52,1100.81,0.1116,0.0403,1.1897,0.532,-0.974,-0.065,-6.07,2.31,0.2544,-0.0127,0.9917,0.046,0.026,-0.239,-14.48,-0.45,0.7816,0.0854,0.6111,-0.391,-0.281,0.289,-51.38,8.28,-0.19,-0.69,-0.50
3562,1929.23,1748.72,1816.41,0.1116,0.0344,1.1909,0.456,-0.791,-0.645,-6.08,2.31,0.2546,-0.0112,0.9949,0.061,0.102,-0.148,-14.47,-0.45,0.7830,0.0895,0.6129,0.113,0.849,-0.429,-51.37,8.28,-0.19,-0.70,-0.50
3577,1253.11,1031.50,1056.48,0.1106,0.0381,1.1938,0.349,-0.394,-1.729,-6.07,2.31,0.2585,-0.0103,0.9907,0.092,0.026,-0.056,-14.47,-0.45,0.7832,0.0935,0.6215,0.220,1.200,-0.719,-51.35,8.29,-0.20,-0.70,-0.50
3591,785.71,603.59,535.90,0.1028,0.0166,1.2007,0.440,1.087,-3.958,-6.03,2.28,0.2578,-0.0061,0.9912,0.031,0.102,0.005,-14.47,-0.45,0.7822,0.0962,0.6240,0.296,1.123,-0.612,-51.33,8.30,-0.20,-0.71,-0.50
3616,2387.77,2654.51,2844.69,0.1111,0.0435,1.1909,0.486,-0.455,-0.278,-6.03,2.29,0.2546,-0.0090,0.9941,0.015,-0.005,-0.025,-14.47,-0.45,0.7877,0.1010,0.6299,0.067,0.513,-0.291,-51.31,8.32,-0.21,-0.71,-0.50
3630,2436.12,2453.85,2667.40,0.1133,0.0400,1.1941,0.547,-0.470,0.424,-6.02,2.29,0.2571,-0.0076,0.9939,0.076,0.163,-0.071,-14.47,-0.45,0.7850,0.1030,0.6312,-0.330,-0.006,0.212,-51.30,8.33,-0.22,-0.72,-0.50
3645,1861.54,1685.86,1785.79,0.1133,0.0356,1.1921,0.685,0.705,1.416,-6.00,2.29,0.2578,-0.0088,0.9895,0.015,0.087,0.020,-14.47,-0.45,0.7848,0.1001,0.6342,-0.544,-0.648,0.686,-51.30,8.34,-0.23,-0.72,-0.50
3670,1015.38,1237.00,1149.96,0.1128,0.0444,1.1899,0.837,1.728,2.057,-5.94,2.31,0.2581,-0.0122,0.9985,0.122,0.102,0.051,-14.47,-0.45,0.7848,0.0964,0.6261,-0.864,-1.350,1.296,-51.32,8.33,-0.24,-0.73,-0.50
3684,1770.48,2113.77,2212.89,0.1135,0.0420,1.1824,0.960,3.194,2.867,-5.89,2.31,0.2576,-0.0107,0.9888,-0.000,0.056,0.097,-14.47,-0.46,0.7877,0.0902,0.6224,-0.986,-1.441,1.556,-51.35,8.31,-0.25,-0.75,-0.50
3699,2428.86,2747.99,3148.50,0.1091,0.0359,1.1880,0.746,1.133,1.447,-5.86,2.31,0.2551,-0.0085,0.9951,0.046,0.179,0.051,-14.47,-0.46,0.7844,0.0891,0.6156,-0.879,-1.304,1.495,-51.37,8.30,-0.27,-0.77,-0.50
3724,696.26,472.23,222.42,0.1094,0.0369,1.1907,0.685,0.217,0.531,-5.84,2.32,0.2539,-0.0112,0.9973,0.046,0.224,-0.041,-14.46,-0.46,0.7848,0.0824,0.6117,-0.467,-0.556,0.747,-51.39,8.27,-0.28,-0.79,-0.51
3738,657.58,651.94,379.56,0.1008,0.0376,1.1868,0.914,4.140,0.241,-5.76,2.32,0.2559,-0.0085,0.9951,0.092,-0.020,-0.087,-14.46,-0.46,0.7837,0.0884,0.6068,-0.223,0.070,0.106,-51.40,8.27,-0.30,-0.81,-0.51
3753,1018.61,1272.45,1149.16,0.1033,0.0354,1.1897,0.669,1.942,0.225,-5.72,2.32,0.2607,-0.0151,0.9922,0.153,0.011,-0.071,-14.46,-0.46,0.7860,0.0876,0.6140,0.067,0.696,-0.413,-51.40,8.27,-0.32,-0.84,-0.52
3778,1660.07,1444.91,1481.98,0.1101,0.0371,1.1934,0.532,-0.348,0.439,-5.72,2.32,0.2549,-0.0100,0.9893,-1.008,-0.142,-5.476,-14.47,-0.49,0.7828,0.0936,0.6248,0.296,1.246,-0.871,-51.36,8.28,-0.34,-0.86,-0.52
3792,1009.74,742.20,561.68,0.1042,0.0398,1.1924,0.547,-0.516,0.348,-5.71,2.32,0.2532,-0.0044,0.9980,-0.992,-0.066,-4.789,-14.46,-0.50,0.7855,0.0962,0.6298,0.189,1.261,-0.749,-51.34,8.29,-0.36,-0.88,-0.52
3808,731.72,497.22,244.98,0.1072,0.0388,1.1899,0.502,-0.837,0.378,-5.71,2.32,0.2405,0.0054,0.9946,-1.802,-0.005,-8.545,-14.45,-0.51,0.7860,0.1021,0.6295,-0.009,0.726,-0.246,-51.32,8.31,-0.38,-0.89,-0.52
3832,2439.34,2747.99,3248.43,0.1052,0.0398,1.1938,0.593,-0.898,0.271,-5.72,2.32,0.2556,-0.0078,0.9946,-1.130,-0.188,-6.682,-14.45,-0.54,0.7886,0.1011,0.6301,-0.498,-0.419,0.701,-51.32,8.31,-0.39,-0.91,-0.52
3847,2416.78,2470.77,2772.16,0.1067,0.0422,1.1921,0.547,-0.928,0.241,-5.72,2.33,0.2598,-0.0193,0.9861,-1.802,0.041,-9.476,-14.45,-0.57,0.7848,0.1017,0.6321,-0.788,-1.167,1.190,-51.33,8.32,-0.41,-0.92,-0.52
3861,1770.48,1586.74,1649.60,0.1047,0.0378,1.1914,0.471,-0.867,0.424,-5.72,2.32,0.2754,-0.0212,0.9863,-1.359,0.026,-7.048,-14.48,-0.61,0.7870,0.0969,0.6235,-0.971,-1.457,1.434,-51.35,8.32,-0.42,-0.94,-0.52
3886,995.24,1201.54,1098.39,0.1038,0.0396,1.1938,0.532,-0.715,0.470,-5.72,2.33,0.2852,-0.0271,0.9871,-0.565,-0.005,-3.186,-14.51,-0.64,1.5408,0.4222,0.5730,-31.215,-27.029,50.518,-52.28,8.12,-0.44,-1.02,-0.58
3901,1895.38,2275.75,2439.34,0.1040,0.0413,1.1973,0.486,-0.730,0.424,-5.72,2.33,0.2747,-0.0254,0.9836,-0.229,0.072,-1.842,-14.53,-0.66,1.0303,0.2292,0.3673,-60.589,-1.426,96.609,-52.60,7.74,-0.45,-1.11,-0.66
3925,971.06,709.16,533.48,0.1042,0.0376,1.1926,0.654,-0.669,0.516,-5.72,2.33,0.2593,-0.0081,0.9907,-0.061,0.117,-0.071,-14.53,-0.66,0.2925,0.0101,0.9187,16.403,-52.678,69.342,-53.18,7.99,-0.47,-1.24,-0.77
3940,662.42,482.71,253.85,0.1082,0.0369,1.1936,0.608,-0.638,0.317,-5.72,2.33,0.2563,-0.0098,0.9888,0.168,0.011,-0.071,-14.53,-0.65,-0.1306,-0.6740,0.8396,22.586,-106.663,-36.246,-53.50,7.38,-0.48,-1.38,-0.90
3955,709.96,773.63,589.08,0.1084,0.0366,1.1995,0.624,0.079,1.141,-5.71,2.33,0.2568,-0.0139,0.9919,0.076,0.102,-0.117,-14.53,-0.65,0.8282,0.0699,-0.2117,25.655,-75.579,-116.230,-55.00,10.83,-0.50,-1.62,-1.13
3979,2170.18,2158.10,2333.77,0.1055,0.0388,1.1953,0.776,1.438,2.073,-5.66,2.34,0.2559,-0.0061,0.9885,0.107,0.133,-0.010,-14.53,-0.65,1.5149,0.4393,-0.6315,65.121,75.154,-11.772,-53.34,15.10,-0.51,-1.73,-1.22
3994,1465.05,1237.00,1220.88,0.1052,0.0408,1.1936,0.715,1.056,2.057,-5.63,2.34,0.2581,-0.0051,0.9978,0.137,0.041,-0.087,-14.52,-0.64,0.9915,0.0214,0.2227,19.670,147.246,64.671,-51.72,15.19,-0.53,-1.72,-1.19
4019,1353.04,1674.58,1660.07,0.1042,0.0339,1.1960,0.792,1.957,2.714,-5.57,2.34,0.2551,-0.0056,1.0000,0.168,0.133,-0.117,-14.52,-0.63,0.4963,0.3278,1.9999,4.632,47.291,-13.742,-49.81,15.18,-0.55,-1.58,-1.04
4033,2159.71,2490.92,2712.53,0.1077,0.0369,1.1926,0.822,0.690,1.798,-5.55,2.34,0.2656,-0.0063,0.9995,0.122,0.056,0.371,-14.52,-0.62,0.4158,-0.1710,1.6251,32.540,-105.991,-35.024,-50.61,15.22,-0.57,-1.51,-0.94
4058,805.05,576.19,387.62,0.1040,0.0393,1.1941,0.700,1.133,2.225,-5.51,2.35,0.2532,-0.0054,1.0000,0.565,-0.005,2.142,-14.52,-0.60,1.0758,0.4392,-0.0327,-41.505,-116.373,-21.864,-53.78,15.80,-0.59,-1.67,-1.08
4072,630.18,541.54,334.43,0.1045,0.0396,1.1909,0.624,1.102,2.073,-5.49,2.35,0.2561,-0.0085,0.9924,0.214,-0.005,0.142,-14.52,-0.59,1.1566,0.4802,-0.3153,-18.574,-22.602,54.380,-54.29,17.68,-0.61,-1.85,-1.24
4087,803.44,967.03,800.22,0.1021,0.0388,1.1882,0.624,-0.272,0.943,-5.48,2.35,0.2568,-0.0063,0.9963,0.137,0.056,-0.056,-14.51,-0.59,0.5247,-0.5475,1.5787,-134.589,50.207,41.464,-52.83,15.01,-0.63,-1.92,-1.30
4112,1733.41,1590.77,1515.82,0.1047,0.0422,1.1929,0.608,-0.791,0.439,-5.49,2.36,0.2583,-0.0095,0.9888,-0.000,0.011,0.020,-14.52,-0.59,1.0237,0.3180,1.0859,-132.315,-93.274,19.373,-54.88,11.82,-0.65,-2.13,-1.49
4127,1375.60,1366.74,1440.07,0.1045,0.0413,1.1973,0.731,-0.821,0.607,-5.49,2.36,0.2573,-0.0115,0.9963,0.168,0.072,-0.041,-14.51,-0.59,0.8793,0.0536,0.6318,65.456,-100.464,8.457,-56.31,12.62,-0.66,-2.43,-1.76
4152,1441.69,1544.84,1458.61,0.1038,0.0415,1.1943,0.715,-0.394,0.760,-5.49,2.37,0.2546,-0.0120,0.9978,0.092,0.056,0.051,-14.51,-0.59,1.0253,0.0698,0.5209,-18.818,-89.014,25.800,-58.64,12.05,-0.68,-2.86,-2.18
4167,1739.05,1772.09,1672.97,0.1025,0.0359,1.1892,0.593,-0.455,0.607,-5.49,2.37,0.2532,-0.0098,0.9893,0.122,0.072,0.020,-14.50,-0.58,0.9095,0.0382,0.5815,-15.780,-103.228,32.304,-60.10,11.66,-0.69,-3.37,-2.68
4191,1207.18,1211.21,1302.27,0.1011,0.0371,1.1963,0.395,-0.791,0.317,-5.49,2.37,0.2515,-0.0112,0.9905,0.107,-0.005,0.188,-14.50,-0.58,0.9006,0.0240,0.6111,-56.589,-86.113,16.869,-62.11,10.10,-0.70,-3.98,-3.28
4206,1100.81,1188.64,1282.93,0.1016,0.0425,1.1921,0.578,-1.005,0.164,-5.49,2.37,0.2708,-0.0105,0.9924,0.275,0.072,1.242,-14.51,-0.58,0.9648,0.0280,0.4182,-69.521,-75.823,4.793,-63.28,8.98,-0.72,-4.63,-3.92
4231,1904.25,1833.33,1748.72,0.1011,0.0417,1.1912,0.410,-1.982,-0.645,-5.53,2.37,0.2708,-0.0117,0.9912,0.962,0.011,4.494,-14.53,-0.56,1.0198,-0.0090,0.3892,-39.444,-71.212,30.380,-65.12,7.82,-0.73,-5.37,-4.64
4245,1690.70,1611.72,1585.93,0.1045,0.0432,1.1919,0.318,-1.783,-0.217,-5.54,2.37,0.2678,-0.0125,0.9912,1.145,-0.066,6.051,-14.54,-0.54,1.0751,-0.0630,0.3896,-49.719,-71.151,34.976,-66.22,6.77,-0.74,-6.12,-5.39
4270,1253.11,1368.35,1366.74,0.0950,0.0366,1.1826,-0.018,-3.005,0.164,-5.60,2.36,0.2422,-0.0034,1.0007,0.748,-0.081,3.364,-14.52,-0.52,0.9379,-0.0774,0.4148,-74.330,-81.472,56.640,-68.19,4.62,-0.74,-6.96,-6.22
4285,1525.49,1640.73,1538.39,0.1106,0.0410,1.1963,0.379,-3.539,0.943,-5.64,2.35,0.2458,-0.0063,0.9941,0.198,0.087,0.753,-14.51,-0.51,0.9032,-0.0876,0.3717,-72.818,-83.503,58.686,-69.37,3.21,-0.74,-7.82,-7.08
4309,1336.92,1310.33,1396.56,0.1042,0.0366,1.1912,0.410,-0.852,0.912,-5.65,2.35,0.2585,-0.0103,0.9912,-0.000,0.148,-0.041,-14.51,-0.52,0.9158,-0.0945,0.3705,-40.696,-72.785,34.060,-71.10,1.88,-0.74,-8.74,-8.00
4324,1158.02,1175.75,1293.41,0.1028,0.0396,1.2000,0.624,-0.287,0.958,-5.64,2.35,0.2576,-0.0078,0.9951,-0.229,0.133,0.051,-14.51,-0.52,0.8772,-0.1024,0.3713,-31.994,-66.953,25.999,-71.96,1.07,-0.74,-9.66,-8.92
4349,1869.60,1849.45,1732.60,0.1055,0.0393,1.1965,0.486,-0.577,0.485,-5.64,2.36,0.2522,-0.0215,0.9915,-1.344,0.102,-6.087,-14.50,-0.56,0.8650,-0.1433,0.3458,-22.498,-94.968,27.083,-74.16,0.05,-0.74,-10.66,-9.93
4363,1871.21,1792.23,1714.87,0.1038,0.0413,1.1921,0.425,-0.760,0.302,-5.64,2.35,0.2607,-0.0103,0.9934,-0.657,0.041,-3.018,-14.50,-0.57,0.8597,-0.1356,0.3182,-23.551,-113.991,27.190,-75.66,-0.74,-0.74,-11.70,-10.97
4388,1132.23,1266.01,1307.11,0.1057,0.0364,1.2019,0.440,-0.806,0.454,-5.65,2.35,0.2527,-0.0093,1.0027,-0.183,-0.127,-1.094,-14.50,-0.58,0.8403,-0.1431,0.2578,-37.261,-129.961,24.884,-78.72,-2.21,-0.73,-12.88,-12.15
4403,1302.27,1439.27,1423.15,0.1052,0.0386,1.1865,0.578,-1.081,0.027,-5.65,2.35,0.2578,-0.0132,0.9941,-0.214,0.072,-1.155,-14.50,-0.58,0.8286,-0.0552,0.1383,-29.292,-126.205,21.968,-80.53,-3.02,-0.73,-14.11,-13.38
4427,1535.97,1469.89,1508.57,0.1018,0.0374,1.1912,0.395,-1.432,-0.248,-5.67,2.35,0.2532,0.0125,0.9980,-0.305,0.179,-0.896,-14.49,-0.57,0.9170,-0.0590,0.1392,-53.169,-94.754,32.289,-82.85,-4.72,-0.73,-15.41,-14.68
4442,1264.40,1256.34,1365.13,0.1057,0.0415,1.1936,0.379,-1.157,-0.156,-5.67,2.35,0.2676,-0.0176,0.9929,-0.137,-0.157,-0.667,-14.50,-0.58,0.8561,-0.0233,-0.0084,-16.956,-80.113,43.419,-84.10,-7.06,-0.73,-16.70,-15.98
4467,1685.05,1748.72,1628.64,0.1030,0.0420,1.1956,0.395,-0.760,0.195,-5.68,2.35,0.2583,-0.0056,0.9985,0.244,-0.081,0.081,-14.51,-0.57,0.7612,-0.0312,-0.1667,2.525,-76.632,38.640,-85.83,-10.25,-0.72,-18.03,-17.31
4481,1905.86,1859.12,1740.66,0.1052,0.0378,1.1895,0.456,-0.272,0.454,-5.67,2.35,0.2517,-0.0068,0.9861,0.076,0.087,0.020,-14.50,-0.56,1.1279,-0.1996,-0.2726,28.693,-101.106,70.503,-87.03,-12.50,-0.72,-19.35,-18.63
4506,1127.40,1187.84,1270.84,0.1055,0.0354,1.1948,0.410,-0.348,0.424,-5.66,2.34,0.2559,-0.0090,0.9932,0.122,0.041,0.081,-14.50,-0.56,1.0856,-0.3369,-0.1222,-31.841,-97.182,62.487,-89.10,-15.23,-0.72,-20.72,-20.00
4521,1136.26,1237.00,1270.04,0.1062,0.0366,1.1960,0.608,-0.730,0.302,-5.66,2.34,0.2522,-0.0046,0.9995,-0.046,0.148,0.066,-14.49,-0.55,1.1097,-0.4337,-0.0358,-29.276,-88.006,35.235,-89.94,-17.24,-0.72,-22.05,-21.34
4546,1805.13,1718.90,1701.98,0.1011,0.0388,1.1904,0.456,-0.715,0.256,-5.66,2.34,0.2661,0.0027,0.9868,-1.908,-0.005,-9.674,-14.50,-0.58,1.0297,-0.4211,-0.1028,-50.482,-83.503,-7.696,-91.52,-20.20,-0.72,-23.40,-22.69
4560,1468.28,1405.42,1496.48,0.1069,0.0386,1.1938,0.563,-0.867,0.287,-5.66,2.34,0.2656,-0.0225,0.9885,-0.626,0.133,-2.438,-14.51,-0.61,0.9426,-0.2629,-0.1809,-38.223,-83.671,-1.055,-92.30,-22.83,-0.71,-24.72,-24.00
4585,1436.04,1542.42,1480.37,0.1077,0.0415,1.1904,0.440,-0.867,0.180,-5.68,2.34,0.2551,-0.0134,0.9937,-0.046,0.011,-0.178,-14.51,-0.61,0.8262,-0.1515,-0.1544,-19.368,-73.365,24.671,-93.75,-25.55,-0.71,-26.04,-25.32
4600,1762.42,1796.26,1677.80,0.1084,0.0359,1.1990,0.471,-0.730,0.271,-5.68,2.34,0.2546,-0.0100,0.9919,-0.061,-0.005,-0.087,-14.51,-0.61,0.8878,-0.2247,-0.1722,-15.124,-74.159,46.487,-94.37,-27.81,-0.71,-27.31,-26.60
4624,1203.96,1213.63,1302.27,0.1077,0.0330,1.1858,0.486,-0.684,0.134,-5.68,2.33,0.2395,0.0674,1.0012,-1.847,-0.524,-12.132,-14.50,-0.57,0.9709,-0.3240,-0.1833,-14.284,-95.533,78.274,-96.19,-29.99,-0.71,-28.62,-27.91
4639,1121.76,1191.06,1276.48,0.1091,0.0408,1.1914,0.547,-0.837,0.393,-5.69,2.33,0.2542,-0.0085,0.9919,-1.725,0.972,-6.743,-14.48,-0.59,0.9220,-0.2866,-0.1464,-17.536,-91.335,58.289,-96.98,-31.98,-0.71,-29.89,-29.18
4664,1877.66,1828.50,1755.16,0.1057,0.0457,1.1980,0.440,-0.577,0.409,-5.69,2.34,0.2371,-0.0483,1.0032,-1.939,0.667,-5.919,-14.44,-0.68,0.9489,-0.4006,-0.1689,-27.780,-103.029,24.365,-98.85,-34.27,-0.70,-31.20,-30.50
4678,1699.56,1614.95,1624.62,0.1089,0.0378,1.1929,0.608,-0.837,0.378,-5.69,2.34,0.2666,-0.0208,0.9844,-1.023,-0.325,-4.361,-14.46,-0.71,0.9712,-0.4255,-0.2307,-45.307,-117.961,8.487,-99.84,-36.61,-0.69,-32.50,-31.80
4703,1227.33,1353.85,1371.58,0.1064,0.0442,1.1853,0.410,-1.493,-0.233,-5.71,2.35,0.2537,-0.0396,0.9839,0.443,0.545,2.417,-14.45,-0.73,0.9550,-0.3024,-0.4189,-34.116,-106.724,4.457,-101.68,-39.59,-0.69,-33.82,-33.14
4718,1530.33,1635.09,1548.06,0.1052,0.0386,1.1970,0.288,-2.119,-1.011,-5.73,2.34,0.2566,-0.0105,0.9944,0.351,-0.081,1.349,-14.45,-0.72,0.8947,-0.2598,-0.4305,-28.498,-94.022,3.144,-102.19,-42.18,-0.68,-35.09,-34.41
4743,1384.47,1352.23,1428.79,0.1035,0.0376,1.1931,0.425,-1.844,-0.813,-5.76,2.34,0.2532,-0.0095,0.9905,1.130,-0.066,4.555,-14.45,-0.69,0.8098,-0.2095,-0.4277,-21.704,-84.785,17.327,-103.43,-44.95,-0.67,-36.36,-35.69
4757,1200.73,1212.82,1304.69,0.1074,0.0381,1.1895,0.364,-1.890,-0.813,-5.78,2.34,0.2561,-0.0125,0.9893,0.092,0.133,1.257,-14.45,-0.69,0.8417,-0.2513,-0.4674,-20.818,-84.831,29.480,-103.73,-47.38,-0.66,-37.56,-36.90
4782,1839.78,1832.53,1706.01,0.1099,0.0364,1.1943,0.471,-1.325,-0.049,-5.80,2.34,0.2556,-0.0010,0.9910,1.450,-0.066,6.555,-14.45,-0.64,0.8527,-0.2539,-0.6307,-35.826,-81.732,31.449,-104.67,-50.47,-0.65,-38.73,-38.08
4797,1895.38,1802.71,1739.05,0.1077,0.0410,1.1938,0.532,-0.837,0.317,-5.80,2.34,0.2522,-0.0183,0.9927,0.809,-0.050,3.990,-14.45,-0.64,0.7990,-0.2102,-0.6420,-37.276,-75.228,38.793,-104.66,-53.24,-0.64,-39.83,-39.19
4822,1136.26,1224.91,1315.16,0.1082,0.0413,1.1902,0.578,-0.806,0.409,-5.80,2.34,0.2600,-0.0090,0.9880,0.260,-0.264,0.463,-14.46,-0.63,0.7495,-0.3353,-0.4921,-41.826,-76.067,57.571,-105.45,-56.10,-0.63,-40.90,-40.27
4836,1259.56,1392.53,1384.47,0.1072,0.0413,1.1921,0.639,-0.837,0.454,-5.80,2.34,0.2544,-0.0083,0.9958,0.321,-0.173,0.051,-14.46,-0.62,0.7010,-0.4207,-0.3770,-43.734,-64.510,79.617,-105.28,-58.24,-0.62,-41.88,-41.26
4861,1601.25,1529.52,1555.31,0.1077,0.0371,1.1917,0.532,-0.898,0.180,-5.81,2.35,0.2527,-0.0078,0.9993,0.061,-0.127,-0.010,-14.46,-0.62,0.7141,-0.3840,-0.4871,-5.337,-91.487,43.174,-106.38,-60.04,-0.61,-42.88,-42.26
4876,1348.21,1316.78,1390.11,0.1060,0.0381,1.1909,0.563,-0.653,0.378,-5.81,2.34,0.2544,-0.0093,0.9932,-0.183,-0.066,0.112,-14.45,-0.62,0.7062,-0.3655,-0.6084,-11.185,-93.289,34.151,-106.48,-61.98,-0.61,-43.81,-43.20
4900,1595.60,1676.19,1555.31,0.1089,0.0396,1.1953,0.532,-0.348,0.500,-5.80,2.35,0.2595,-0.0134,0.9932,-0.076,0.087,0.066,-14.46,-0.62,0.8367,-0.6166,-0.6147,-41.841,-109.441,12.609,-107.89,-64.46,-0.60,-44.77,-44.17
4915,1843.00,1823.66,1704.40,0.1052,0.0398,1.1912,0.456,-0.241,0.683,-5.79,2.35,0.2578,-0.0068,0.9944,0.061,0.011,0.097,-14.46,-0.62,0.7573,-0.5878,-0.5961,-25.734,-115.472,-0.001,-108.22,-66.24,-0.59,-45.69,-45.10
4940,1193.48,1221.69,1324.03,0.1064,0.0337,1.1929,0.440,-0.715,0.485,-5.79,2.34,0.2551,-0.0112,0.9932,0.122,-0.096,0.112,-14.46,-0.61,0.6550,-0.3607,-0.6980,-27.093,-123.640,-5.879,-109.89,-68.64,-0.59,-46.67,-46.08
4955,1145.93,1258.75,1314.36,0.1099,0.0356,1.1924,0.502,-0.944,0.317,-5.80,2.34,0.2544,-0.0093,0.9915,0.198,-0.081,0.081,-14.46,-0.61,0.6079,-0.2633,-0.8196,-2.818,-106.541,-14.978,-109.91,-70.55,-0.58,-47.57,-46.99
4979,1818.02,1714.07,1670.55,0.1067,0.0403,1.1907,0.456,-1.600,0.057,-5.82,2.34,0.2539,-0.0146,0.9944,0.107,0.056,0.066,-14.45,-0.61,0.5254,-0.1239,-0.9314,4.495,-76.327,0.136,-110.15,-72.48,-0.58,-48.43,-47.85
4994,1547.25,1475.53,1519.05,0.0466,0.0383,1.1167,0.120,-4.928,-0.752,-5.82,2.33,0.2559,-0.0115,0.9902,-0.260,0.102,0.051,-14.45,-0.62,0.5529,-0.1982,-0.8309,15.609,-50.678,18.869,-109.33,-74.14,-0.57,-49.17,-48.60
5019,1353.85,1457.00,1436.04,0.0991,0.0305,1.2146,0.181,-4.623,-0.004,-5.91,2.32,0.2559,-0.0112,1.0000,-0.107,0.087,0.188,-14.45,-0.62,0.6477,-0.4397,-0.7992,10.953,-49.106,26.441,-109.05,-75.41,-0.56,-49.83,-49.27
5033,1661.69,1698.75,1602.05,0.1116,0.0408,1.1846,0.257,-0.623,-1.775,-5.91,2.32,0.2576,-0.0105,0.9927,-0.137,0.072,0.036,-14.45,-0.62,0.5894,-0.4554,-0.8129,2.998,-49.045,7.251,-108.21,-76.87,-0.55,-50.39,-49.84
5058,1276.48,1280.51,1380.44,0.1279,0.0474,1.2063,0.349,-1.096,-1.637,-5.94,2.32,0.2561,-0.0112,0.9934,0.168,0.026,0.051,-14.45,-0.62,0.6198,-0.4507,-0.9188,5.899,-45.274,-11.009,-107.77,-78.27,-0.54,-50.88,-50.34
5073,1171.72,1207.18,1328.06,0.1221,0.0398,1.1904,0.654,1.774,0.332,-5.91,2.33,0.2563,-0.0081,0.9976,-0.137,0.163,0.036,-14.45,-0.62,0.6011,-0.3962,-0.9116,6.983,-27.350,-17.696,-106.63,-79.74,-0.53,-51.25,-50.73
5098,1873.63,1793.04,1681.03,0.1062,0.0388,1.1882,0.624,1.881,2.073,-5.85,2.33,0.2600,-0.0071,0.9915,-0.061,0.072,0.081,-14.45,-0.61,0.4960,-0.2944,-0.8917,8.082,-8.678,-20.826,-105.26,-81.18,-0.52,-51.51,-50.99
5112,1740.66,1642.34,1619.78,0.1084,0.0430,1.1909,0.669,1.560,1.645,-5.82,2.34,0.2544,-0.0068,0.9985,-0.092,0.102,0.158,-14.45,-0.61,0.4773,-0.2793,-0.8700,9.640,-6.754,-10.047,-103.80,-82.66,-0.52,-51.65,-51.13
5137,1199.12,1344.98,1354.65,0.1057,0.0400,1.1858,0.563,0.415,0.088,-5.79,2.34,0.2488,-0.0073,0.9937,-0.046,0.133,0.188,-14.43,-0.61,0.4883,-0.3583,-0.7148,-11.841,-10.251,2.350,-102.61,-84.37,-0.52,-51.69,-51.18
5151,1442.49,1532.75,1482.78,0.1069,0.0364,1.1931,0.547,-0.944,-0.049,-5.79,2.34,0.2515,-0.0085,0.9885,-0.214,0.102,0.127,-14.43,-0.61,0.5411,-0.3711,-0.8274,-11.765,-16.541,4.151,-101.41,-85.96,-0.52,-51.65,-51.14
5176,1400.59,1370.77,1465.86,0.1086,0.0298,1.1909,0.395,-2.165,-2.507,-5.83,2.33,0.2568,-0.0098,0.9873,-0.168,0.072,0.005,-14.43,-0.61,0.5739,-0.3538,-0.9041,0.632,-2.831,1.312,-100.06,-87.40,-0.51,-51.52,-51.01
5191,1220.88,1233.77,1364.32,0.1072,0.0396,1.1912,0.395,-1.844,-1.576,-5.85,2.33,0.2505,-0.0095,0.9868,-0.214,0.041,0.036,-14.43,-0.61,0.5336,-0.3313,-0.8544,2.403,2.910,1.800,-98.62,-88.79,-0.51,-51.29,-50.78
5215,1810.77,1793.04,1656.04,0.1079,0.0391,1.1868,0.440,-1.707,-0.859,-5.87,2.33,0.2678,-0.0120,0.9939,-0.809,0.224,-3.552,-14.43,-0.64,0.5298,-0.3564,-0.7986,9.075,5.917,4.167,-97.13,-89.92,-0.50,-50.97,-50.47
5230,1861.54,1745.49,1668.13,0.1128,0.0381,1.1892,0.547,-1.661,-0.049,-5.89,2.33,0.2612,-0.0291,0.9871,-0.428,0.117,-1.705,-14.44,-0.66,0.5460,-0.3754,-0.8384,9.808,3.169,4.472,-95.76,-91.10,-0.49,-50.58,-50.09
5255,1149.96,1266.81,1338.53,0.1125,0.0388,1.1885,0.456,-2.272,0.500,-5.93,2.33,0.2603,-0.0210,0.9902,0.015,-0.081,-0.178,-14.45,-0.67,0.5245,-0.4067,-0.8201,14.052,8.574,-0.734,-94.23,-92.01,-0.49,-50.11,-49.62
5269,1295.02,1426.37,1392.53,0.1074,0.0388,1.1917,0.654,-0.684,1.157,-5.93,2.33,0.2568,-0.0081,0.9937,0.550,-0.203,0.326,-14.45,-0.66,0.5676,-0.4065,-0.9077,17.655,13.444,-4.581,-92.75,-93.03,-0.48,-49.56,-49.08
5294,1552.89,1499.71,1535.16,0.1118,0.0391,1.1929,0.715,0.598,1.523,-5.90,2.34,0.2666,-0.0137,0.9963,1.298,0.041,5.226,-14.46,-0.63,0.5707,-0.3619,-0.9801,12.663,39.200,-13.650,-90.51,-94.06,-0.47,-48.90,-48.43
5309,1340.95,1315.97,1412.67,0.1069,0.0383,1.1880,0.578,0.598,1.477,-5.88,2.33,0.2520,0.0000,0.9983,1.313,-0.035,5.807,-14.46,-0.60,0.5320,-0.3275,-0.9767,10.006,61.780,-14.536,-88.36,-95.26,-0.47,-48.14,-47.66
5334,1601.25,1663.30,1560.15,0.1067,0.0442,1.1892,0.639,0.018,1.126,-5.86,2.35,0.2556,-0.0103,0.9910,0.183,0.102,0.936,-14.45,-0.60,0.5662,-0.3894,-0.8885,14.831,91.139,-11.177,-84.98,-96.12,-0.47,-47.19,-46.72
5348,1853.48,1802.71,1678.61,0.1079,0.0366,1.1982,0.639,-0.348,0.821,-5.85,2.34,0.2551,-0.0046,0.9990,0.046,0.224,0.891,-14.45,-0.59,0.5400,-0.4028,-0.7997,24.327,100.375,-19.849,-82.48,-96.92,-0.47,-46.14,-45.67
5373,1161.25,1207.18,1328.06,0.1060,0.0396,1.1931,0.532,-0.745,0.485,-5.86,2.35,0.2549,-0.0098,0.9939,-0.000,-0.020,0.127,-14.45,-0.59,0.6119,-0.3805,-0.8463,35.044,126.314,-21.711,-78.41,-97.24,-0.47,-44.87,-44.40
5388,1173.33,1283.74,1345.79,0.1028,0.0381,1.1912,0.517,-1.005,0.180,-5.85,2.34,0.2522,-0.0093,0.9849,0.046,-0.142,0.249,-14.45,-0.59,0.6056,-0.3406,-0.8582,37.747,139.337,-21.971,-75.50,-97.92,-0.47,-43.49,-43.02
5413,1801.10,1714.87,1676.19,0.1057,0.0403,1.1904,0.578,-1.066,0.378,-5.86,2.35,0.2515,-0.0090,0.9956,0.122,-0.188,0.127,-14.45,-0.58,0.6346,-0.2926,-0.7213,34.266,162.528,-5.116,-70.81,-98.29,-0.47,-41.88,-41.41
5427,1536.78,1484.40,1546.45,0.1099,0.0374,1.1924,0.379,-1.508,0.149,-5.87,2.34,0.2568,-0.0073,0.9949,0.107,-0.157,0.188,-14.45,-0.58,0.7174,-0.3813,-0.6649,39.395,167.032,3.480,-67.88,-98.76,-0.46,-40.17,-39.71
5452,1320.00,1432.01,1350.62,0.1130,0.0381,1.1987,0.364,-3.402,0.241,-5.94,2.34,0.2537,-0.0127,0.9854,0.061,-0.157,0.204,-14.45,-0.58,0.7961,-0.4978,-0.4922,29.624,166.803,-15.803,-63.43,-98.76,-0.46,-38.27,-37.81
5467,1631.87,1689.08,1548.06,0.1082,0.0378,1.1926,0.471,-2.134,0.073,-5.96,2.34,0.2561,-0.0090,0.9946,0.137,-0.020,0.158,-14.45,-0.58,0.7627,-0.5126,-0.4396,20.037,160.131,-17.711,-60.85,-99.11,-0.45,-36.32,-35.87
5491,1282.12,1284.54,1376.41,0.1086,0.0374,1.1970,0.578,-1.569,0.363,-5.98,2.34,0.2561,-0.0120,0.9951,-0.031,0.072,0.326,-14.45,-0.58,0.8125,-0.4297,-0.4562,44.159,151.475,-28.902,-56.99,-98.79,-0.44,-34.23,-33.79
5506,1130.62,1134.65,1191.87,0.1094,0.0413,1.1914,0.563,-1.356,0.317,-5.99,2.34,0.2461,0.0000,0.9985,1.893,0.056,10.173,-14.44,-0.54,0.9541,-0.4854,-0.4120,89.090,167.581,-43.650,-54.58,-98.15,-0.43,-32.12,-31.69
5531,1978.39,2012.23,2051.72,0.1082,0.0410,1.1917,0.349,-1.508,0.164,-6.01,2.34,0.2520,0.0056,0.9983,0.840,0.056,4.371,-14.43,-0.50,0.8507,-0.3390,-0.4515,39.518,184.345,-61.100,-50.13,-98.08,-0.42,-29.85,-29.43
5545,2183.08,2225.79,2574.73,0.1150,0.0393,1.1951,0.318,-1.356,-0.553,-6.02,2.34,0.2529,0.0122,0.9944,0.229,-0.066,1.547,-14.43,-0.48,0.6858,-0.2866,-0.2535,66.525,171.139,-48.963,-47.91,-97.80,-0.41,-27.57,-27.16
5570,845.35,961.39,836.48,0.1106,0.0410,1.1946,0.532,-0.608,0.164,-6.02,2.34,0.2493,-0.0115,0.9924,-0.794,0.179,-2.422,-14.42,-0.50,0.8357,-0.3302,-0.0359,53.792,136.131,-33.162,-45.01,-96.47,-0.40,-25.26,-24.86
5585,1468.28,1768.86,1859.12,0.1094,0.0396,1.1963,0.608,-0.516,0.622,-6.01,2.34,0.2571,-0.0032,0.9951,-1.374,0.163,-5.308,-14.42,-0.51,0.9457,-0.4160,0.0499,49.579,135.505,-46.169,-43.51,-95.50,-0.39,-23.00,-22.61
5609,1264.40,963.00,838.10,0.1077,0.0383,1.1921,0.547,0.431,1.447,-5.98,2.35,0.2593,-0.0151,0.9880,-1.863,0.224,-7.018,-14.42,-0.56,0.9294,-0.3639,-0.0818,43.182,122.604,-81.864,-41.02,-94.59,-0.38,-20.73,-20.34
5624,782.49,502.86,244.98,0.1074,0.0393,1.2017,0.639,0.598,1.386,-5.95,2.35,0.2434,-0.0034,0.9998,-1.237,0.011,-4.178,-14.40,-0.57,1.1788,-0.4803,-0.0941,34.632,113.505,-69.009,-39.93,-94.22,-0.38,-18.54,-18.16
5649,1786.59,1826.08,1767.25,0.1111,0.0342,1.1865,0.715,1.331,1.309,-5.91,2.35,0.2627,-0.0132,0.9907,-0.534,0.270,-1.262,-14.40,-0.59,0.4476,-0.1577,0.1813,33.853,95.230,-32.963,-38.04,-92.33,-0.38,-16.38,-16.00
5663,1990.48,2015.46,2079.93,0.1089,0.0391,1.1899,0.746,1.087,1.630,-5.88,2.35,0.2761,-0.0103,0.9927,0.519,-0.386,0.707,-14.43,-0.58,1.0829,-0.4316,0.2250,31.456,70.116,-67.436,-37.59,-91.29,-0.38,-14.34,-13.96
5688,709.16,585.86,365.86,0.1096,0.0374,1.1921,0.746,0.827,1.508,-5.85,2.36,0.2559,-0.0093,0.9988,-0.947,0.545,-1.583,-14.42,-0.61,0.9330,-0.2505,0.0763,16.846,63.520,-80.871,-36.78,-90.51,-0.38,-12.38,-12.00
5703,972.67,1152.38,1015.38,0.1060,0.0361,1.1934,0.669,0.568,1.279,-5.82,2.36,0.2498,-0.0081,0.9851,-1.603,0.499,-1.827,-14.41,-0.63,0.8877,-0.1676,0.0199,19.640,51.871,-57.894,-36.89,-90.09,-0.39,-10.58,-10.19
5728,1777.73,1575.46,1663.30,0.1086,0.0378,1.1904,0.532,-0.623,0.607,-5.83,2.36,0.2612,-0.0137,1.0017,-1.740,0.774,-1.140,-14.39,-0.67,0.9852,-0.1787,0.0736,22.998,54.146,-70.612,-36.41,-89.08,-0.39,-8.86,-8.47
5742,1119.34,799.41,647.91,0.1052,0.0361,1.1960,0.517,-0.653,0.454,-5.82,2.35,0.2524,-0.0122,0.9907,-0.870,0.606,0.310,-14.38,-0.68,1.0751,-0.1818,0.1543,6.082,71.871,-68.429,-36.22,-88.20,-0.39,-7.25,-6.86
5767,1804.32,2169.38,2347.47,0.1082,0.0339,1.1938,0.563,-0.837,0.348,-5.83,2.35,0.2581,-0.0083,0.9946,0.504,-0.234,0.036,-14.39,-0.67,1.0103,-0.0190,0.1211,5.060,55.826,-36.047,-35.80,-86.49,-0.39,-5.73,-5.34
5781,1916.34,1907.47,1882.49,0.1072,0.0364,1.1938,0.593,-0.837,0.409,-5.83,2.35,0.2571,-0.0098,0.9941,0.656,-0.325,0.265,-14.40,-0.66,1.0128,-0.1738,0.2548,-11.185,43.902,-27.116,-35.92,-85.61,-0.40,-4.32,-3.92
5806,1124.18,1121.76,1161.25,0.1101,0.0371,1.1948,0.563,-0.959,0.302,-5.84,2.35,0.2532,-0.0120,0.9885,0.641,0.011,1.990,-14.40,-0.64,1.0471,-0.0348,0.2238,-9.246,35.047,-35.803,-35.91,-84.30,-0.40,-3.01,-2.61
5821,1095.97,1149.16,1169.30,0.1064,0.0366,1.1941,0.502,-0.898,0.424,-5.84,2.35,0.2571,-0.0120,0.9934,-0.000,0.347,2.081,-14.39,-0.64,1.0076,-0.0586,0.2285,-13.139,33.398,-24.978,-36.25,-83.09,-0.40,-1.81,-1.41
5845,1830.92,1759.19,1787.40,0.1062,0.0381,1.1841,0.440,-0.867,0.256,-5.84,2.35,0.2527,-0.0139,0.9836,0.107,0.331,2.219,-14.39,-0.64,0.7947,-0.1708,0.1904,6.403,18.604,-56.902,-36.52,-82.11,-0.40,-0.72,-0.32
5860,1502.93,1456.19,1546.45,0.1082,0.0396,1.1907,0.410,-1.249,-0.263,-5.85,2.34,0.2610,-0.0110,0.9941,0.427,0.484,3.440,-14.39,-0.64,1.1459,-0.0668,0.1232,11.640,18.833,-62.658,-37.18,-80.87,-0.40,0.25,0.65
5885,1389.30,1478.75,1403.00,0.1047,0.0388,1.1904,0.486,-1.157,-0.339,-5.86,2.35,0.2539,-0.0129,0.9905,-0.168,1.171,2.692,-14.36,-0.64,1.1064,-0.1261,0.1532,0.922,27.871,-56.871,-37.35,-80.02,-0.40,1.15,1.54
5899,1730.18,1759.19,1646.37,0.1113,0.0398,1.1938,0.532,-1.279,-0.324,-5.87,2.34,0.2554,-0.0088,1.0029,-1.069,1.950,2.081,-14.33,-0.66,1.0531,-0.0840,0.1759,5.380,36.375,-51.284,-37.68,-78.85,-0.39,1.95,2.35
5924,1232.97,1230.55,1338.53,0.1072,0.0393,1.1917,0.456,-0.837,0.332,-5.87,2.35,0.2607,-0.0161,0.9897,2.031,-2.936,-0.270,-14.41,-0.61,0.9941,0.0277,0.1865,19.792,42.085,-52.322,-37.49,-76.62,-0.39,2.72,3.11
5939,1146.74,1209.60,1283.74,0.1074,0.0415,1.1880,0.532,-0.852,0.271,-5.87,2.35,0.2571,-0.0073,0.9980,1.008,-1.394,-0.041,-14.43,-0.59,1.0062,0.0409,0.2412,1.121,37.841,-34.734,-37.73,-74.88,-0.39,3.41,3.81
5963,1886.52,1818.02,1727.77,0.1118,0.0425,1.1846,0.425,-0.577,0.577,-5.87,2.35,0.2576,-0.0105,0.9993,0.137,-0.188,0.204,-14.43,-0.59,1.0089,0.0386,0.1356,-0.834,46.360,-32.307,-37.49,-73.09,-0.40,4.08,4.47
5978,1672.16,1594.80,1627.84,0.1055,0.0427,1.1917,0.563,-0.760,0.531,-5.87,2.35,0.2556,-0.0095,1.0010,-0.504,0.163,0.295,-14.43,-0.60,0.9885,-0.0159,0.2290,3.395,56.436,-35.818,-37.47,-71.66,-0.40,4.69,5.09
6003,1256.34,1372.38,1351.43,0.1084,0.0415,1.1863,0.593,-0.608,0.500,-5.87,2.36,0.2461,-0.0137,0.9839,-0.580,0.896,0.585,-14.40,-0.62,1.0259,-0.0404,0.2468,-21.505,53.230,-19.070,-36.96,-70.93,-0.40,5.30,5.70
6017,1546.45,1598.83,1527.91,0.1079,0.0371,1.1965,0.608,-0.730,0.546,-5.87,2.36,0.2578,-0.0112,0.9927,0.198,-0.783,0.097,-14.41,-0.61,0.9762,0.0099,0.2716,-14.879,59.780,-26.917,-36.86,-69.68,-0.40,5.88,6.28
6042,1340.95,1299.85,1410.26,0.1086,0.0352,1.1912,0.502,-0.669,0.348,-5.87,2.36,0.2527,-0.0093,0.9895,0.153,-0.768,-0.377,-14.43,-0.61,1.0208,0.0195,0.2798,11.960,70.528,-28.001,-35.90,-67.92,-0.40,6.48,6.88
6056,1165.27,1211.21,1306.30,0.1130,0.0383,1.1931,0.654,-0.653,0.363,-5.87,2.36,0.2566,-0.0115,0.9932,0.336,-0.844,-0.621,-14.44,-0.60,0.9706,0.0317,0.3473,5.838,77.520,-30.398,-35.48,-66.37,-0.40,7.07,7.47
6071,1136.26,1197.51,1278.90,0.1064,0.0371,1.1995,0.456,-0.440,0.561,-5.86,2.35,0.2544,-0.0073,0.9939,-0.809,0.087,-1.415,-14.44,-0.61,0.7762,0.0377,0.4363,22.953,68.024,-36.429,-35.00,-64.61,-0.40,7.65,8.05
6096,1887.33,1779.34,1776.92,0.1082,0.0398,1.1919,0.563,-0.623,0.485,-5.86,2.36,0.2549,-0.0090,0.9963,-2.702,1.568,-1.674,-14.40,-0.68,0.9471,0.0952,0.3511,14.571,63.734,-45.284,-34.13,-62.66,-0.40,8.25,8.65
6111,1663.30,1580.29,1676.19,0.1091,0.0359,1.1951,0.578,-0.806,0.271,-5.86,2.35,0.2546,-0.0098,0.9941,-4.763,1.919,-0.025,-14.37,-0.74,1.0592,0.2112,0.4794,8.678,61.826,-34.734,-33.84,-60.81,-0.40,8.83,9.23
6135,1261.98,1338.53,1255.53,0.1074,0.0371,1.1943,0.563,-0.577,0.485,-5.86,2.35,0.2471,-0.0125,0.9875,0.458,0.484,0.417,-14.35,-0.73,1.0382,0.1090,0.6030,19.853,28.055,2.457,-33.67,-58.91,-0.40,9.38,9.78
6150,1577.88,1646.37,1539.19,0.1074,0.0400,1.1904,0.456,-0.348,0.729,-5.85,2.35,0.2539,-0.0103,1.0005,1.603,-0.035,0.127,-14.35,-0.70,0.8729,-0.0017,0.3928,-0.223,22.864,-2.322,-33.99,-57.74,-0.40,9.87,10.26
6164,1921.17,1946.96,1895.38,0.1089,0.0388,1.1958,0.502,-0.424,0.531,-5.84,2.35,0.2512,-0.0112,0.9954,0.916,0.392,0.463,-14.34,-0.69,0.6967,0.1721,0.4983,-3.093,21.383,-11.253,-34.06,-56.25,-0.39,10.32,10.71
6189,1137.07,1103.22,1147.55,0.1035,0.0369,1.1865,0.502,-0.653,0.378,-5.84,2.35,0.2556,-0.0085,1.0034,-0.809,-0.692,-0.483,-14.36,-0.71,1.0989,0.0022,0.5364,17.518,-22.312,-14.978,-35.20,-54.69,-0.39,10.65,11.05
6204,1100.00,1170.11,1169.30,0.1047,0.0359,1.1821,0.593,-0.791,0.348,-5.84,2.35,0.2549,-0.0134,0.9968,-3.466,1.507,0.066,-14.34,-0.76,0.8302,0.0645,0.4113,-13.185,-16.983,-9.955,-36.01,-53.61,-0.39,10.91,11.30
6229,1859.12,1810.77,1851.87,0.1055,0.0396,1.1897,0.624,-0.821,0.409,-5.84,2.35,0.2473,-0.0154,0.9988,-1.725,-0.356,-0.224,-14.34,-0.80,0.9731,0.2439,0.5454,6.388,-30.617,-8.826,-37.20,-51.90,-0.39,11.07,11.45
6243,1540.00,1508.57,1633.48,0.1074,0.0383,1.1936,0.532,-1.050,0.287,-5.84,2.35,0.2576,-0.0173,0.9973,-3.206,0.484,0.402,-14.33,-0.85,1.0587,0.4318,0.6190,-1.200,-38.754,6.869,-38.10,-50.18,-0.38,11.15,11.53
6268,1259.56,1345.79,1186.23,0.1069,0.0405,1.1951,0.486,-1.295,-0.019,-5.86,2.35,0.2424,-0.0217,0.9783,1.313,0.591,0.265,-14.31,-0.83,1.0388,0.5728,0.5438,-23.658,-67.747,44.228,-40.04,-48.82,-0.38,11.09,11.47
6283,1718.90,1819.63,1722.93,0.1055,0.0386,1.1980,0.486,-1.417,-0.080,-5.86,2.35,0.2588,-0.0154,0.9988,4.840,-0.264,-0.972,-14.32,-0.76,1.2010,0.6908,0.2760,-20.360,-52.098,82.732,-41.15,-46.77,-0.37,10.96,11.33
6307,741.39,426.30,99.93,0.1106,0.0383,1.1968,0.547,-1.249,-0.187,-5.88,2.35,0.2490,-0.0159,0.9856,4.473,0.301,1.913,-14.31,-0.65,1.1893,0.5544,0.9661,-18.345,-69.777,187.663,-42.95,-45.69,-0.37,10.71,11.08
6322,618.90,507.69,219.19,0.1079,0.0405,1.1943,0.502,-0.821,0.363,-5.88,2.35,0.2644,-0.0129,1.0005,3.237,-0.631,4.097,-14.33,-0.61,0.6954,0.2915,0.7285,-30.482,-119.655,198.884,-44.63,-44.77,-0.36,10.36,10.73
6347,2488.50,2630.33,3236.34,0.1067,0.0410,1.1921,0.685,-0.852,0.348,-5.88,2.36,0.2441,-0.0105,0.9836,-0.000,1.934,4.524,-14.27,-0.61,0.7273,-0.3467,0.1974,19.197,-124.678,137.816,-47.99,-44.62,-0.36,9.81,10.16
6361,1955.82,1813.99,1964.69,0.1089,0.0415,1.1943,0.608,-0.363,0.653,-5.88,2.36,0.2583,-0.0042,1.0054,2.962,-1.669,4.967,-14.30,-0.56,0.5844,-0.3604,-0.2850,17.365,-83.121,95.449,-49.26,-46.04,-0.35,9.20,9.55
6386,927.55,1134.65,987.99,0.1060,0.0400,1.1936,0.639,2.431,2.851,-5.80,2.37,0.2458,-0.0151,0.9888,0.290,1.522,2.860,-14.26,-0.56,1.2609,-1.1154,-0.1300,10.098,-17.243,59.037,-49.66,-46.81,-0.35,8.60,8.95
6401,1673.77,2050.11,2198.39,0.1067,0.0408,1.1909,0.776,3.392,3.462,-5.74,2.37,0.2561,-0.0034,0.9971,0.489,-1.424,0.585,-14.28,-0.54,0.4500,-0.6442,-0.4226,-3.353,-17.564,77.922,-49.52,-48.39,-0.35,8.05,8.40
6415,2407.11,2849.52,3300.00,0.1079,0.0417,1.1926,0.700,2.431,2.500,-5.69,2.37,0.2485,-0.0112,0.9971,-1.099,0.331,-0.468,-14.27,-0.56,0.6340,-1.2673,-0.2327,5.060,-5.121,33.938,-49.13,-49.35,-0.36,7.56,7.92
6440,704.32,427.91,79.78,0.0996,0.0356,1.1948,0.547,3.163,-0.614,-5.60,2.37,0.2500,-0.0122,0.9888,-0.305,-0.279,-0.087,-14.27,-0.57,0.4629,-0.5374,-0.1196,49.136,86.452,-146.368,-46.84,-49.22,-0.37,7.26,7.63
6455,631.79,573.77,220.81,0.1016,0.0349,1.1887,0.502,-1.569,-0.752,-5.61,2.37,0.2561,-0.0146,0.9963,0.031,0.423,0.463,-14.27,-0.58,0.8561,-0.2164,0.0601,63.227,96.452,-190.704,-46.03,-48.83,-0.38,7.03,7.42
6469,940.44,1140.29,991.21,0.1045,0.0300,1.1956,0.624,-1.875,-0.630,-5.62,2.36,0.2454,-0.0222,0.9819,0.733,-0.096,1.547,-14.27,-0.58,1.3137,-0.1119,0.3295,8.678,104.742,-132.658,-45.11,-48.10,-0.39,6.89,7.28
6494,1772.09,1572.23,1645.57,0.1011,0.0393,1.1934,0.624,-0.684,0.516,-5.62,2.36,0.2556,-0.0103,0.9968,2.443,-2.600,1.852,-14.33,-0.52,1.0929,0.3091,0.7476,-29.337,104.482,-62.276,-42.74,-47.40,-0.40,6.93,7.33
6509,1094.36,747.84,531.87,0.1067,0.0364,1.1931,0.547,-0.348,0.745,-5.62,2.36,0.2556,-0.0095,0.9934,1.649,-1.669,1.746,-14.36,-0.50,1.0344,0.5092,1.2003,-13.185,41.933,-37.650,-42.06,-46.18,-0.42,7.01,7.42
6533,1895.38,2324.91,2539.27,0.1038,0.0420,1.1912,0.547,-0.806,0.332,-5.62,2.37,0.2749,-0.0183,0.9871,-0.061,-1.974,-1.003,-14.43,-0.51,1.0688,0.4088,0.8193,-38.024,-45.625,2.640,-43.31,-45.64,-0.43,6.99,7.43
6548,2540.88,2887.40,3300.00,0.1018,0.0376,1.1963,0.700,-0.669,0.439,-5.62,2.36,0.2393,-0.0078,0.9968,0.595,-1.653,-0.758,-14.43,-0.50,1.1299,0.6722,0.5092,-25.032,-81.655,14.930,-44.67,-44.03,-0.45,6.88,7.33
6572,648.72,436.78,103.15,0.1033,0.0159,1.1929,0.837,-0.592,0.592,-5.62,2.35,0.2517,-0.0081,0.9902,-0.657,1.797,1.608,-14.39,-0.52,1.1626,0.2948,0.0439,2.724,-80.953,115.037,-47.25,-41.45,-0.46,6.60,7.07
6587,723.66,784.91,548.79,0.0566,0.2878,1.2170,0.776,-5.676,-7.378,-5.64,2.58,0.2451,-0.0078,0.9946,-0.031,0.087,0.631,-14.38,-0.52,0.9592,-0.0933,0.0747,-11.521,-39.365,138.060,-48.52,-41.82,-0.47,6.25,6.73
6602,1237.00,1556.12,1542.42,0.1113,-0.0244,1.2124,-1.529,-1.371,-12.065,-5.65,2.49,0.2483,-0.0081,0.9966,-0.321,-0.799,-0.743,-14.38,-0.52,0.8226,-0.4868,0.1830,8.052,-24.174,106.869,-49.05,-42.25,-0.48,5.89,6.37
6627,1457.00,1226.52,1190.26,0.1045,0.0410,1.1890,1.143,-1.310,0.164,-5.67,2.50,0.2622,-0.0098,0.9966,1.313,-1.638,-1.308,-14.43,-0.49,0.4724,-0.5210,0.2860,12.388,-20.388,17.388,-49.34,-42.33,-0.49,5.54,6.03
6641,927.55,631.79,377.95,0.1023,0.0400,1.1892,0.807,-1.615,-0.187,-5.68,2.50,0.2524,-0.0100,1.0005,0.061,-0.218,0.265,-14.42,-0.49,0.7798,-0.5627,-0.0295,32.953,-45.976,-16.994,-50.10,-42.87,-0.50,5.16,5.65
6666,2100.07,2483.66,2803.59,0.1045,0.0405,1.1921,0.242,-2.043,-0.599,-5.71,2.50,0.2539,-0.0122,0.9866,-0.168,0.102,0.448,-14.42,-0.50,1.1245,-0.4128,-0.2834,-11.948,28.314,-38.520,-49.73,-44.79,-0.50,4.83,5.33
6681,2525.57,2746.37,3270.99,0.1062,0.0378,1.1941,0.074,-1.646,-0.263,-5.72,2.49,0.2537,-0.0112,0.9958,0.076,0.133,0.768,-14.42,-0.50,0.8687,-0.1339,-0.1302,-1.490,53.627,-38.108,-49.53,-46.60,-0.51,4.54,5.05
6705,643.88,504.47,247.40,0.1072,0.0381,1.1965,-0.109,-1.127,0.409,-5.74,2.47,0.2554,-0.0103,0.9978,-0.015,-0.005,0.433,-14.42,-0.50,0.9839,-0.3929,0.4233,8.174,61.734,-50.108,-48.22,-46.33,-0.51,4.36,4.87
6720,992.82,1109.67,1041.98,0.1067,0.0334,1.1926,-0.185,-0.333,0.577,-5.73,2.45,0.2561,-0.0103,0.9966,-0.015,-0.050,0.280,-14.42,-0.50,1.1451,0.2864,1.2622,-32.879,51.612,-60.658,-47.36,-45.61,-0.51,4.26,4.77
6745,2062.20,2089.60,2385.35,0.1057,0.0425,1.1829,0.440,-0.715,0.195,-5.74,2.45,0.2549,-0.0076,0.9919,-0.168,-0.127,0.081,-14.42,-0.51,0.9131,0.1283,0.1794,-41.398,-76.174,-0.459,-49.79,-44.99,-0.51,3.99,4.50
6759,1310.33,1001.68,929.16,0.1062,0.0371,1.1948,0.502,-0.760,0.317,-5.73,2.45,0.2500,-0.0120,0.9875,-0.046,-0.081,0.219,-14.42,-0.51,0.9740,0.2117,-0.0101,-4.299,-48.693,12.212,-51.04,-42.30,-0.52,3.66,4.17
6784,1612.53,1959.85,2062.20,0.1021,0.0432,1.1919,0.486,-0.424,0.439,-5.73,2.45,0.2490,-0.0085,0.9858,-0.336,0.072,0.234,-14.41,-0.52,1.0100,-0.0802,-0.0411,2.708,21.536,28.976,-51.19,-43.73,-0.52,3.33,3.85
6798,2394.21,2731.06,3193.63,0.1067,0.0391,1.1929,0.395,-0.501,0.287,-5.72,2.45,0.2566,-0.0120,0.9932,0.046,-0.173,0.066,-14.41,-0.52,0.8751,-0.2266,0.2207,19.518,30.925,28.915,-51.13,-43.49,-0.52,3.04,3.55
6813,1938.10,1847.84,1760.81,0.1060,0.0396,1.1965,0.303,-1.020,-0.141,-5.72,2.44,0.2598,-0.0120,0.9905,0.076,-0.066,0.081,-14.42,-0.52,0.8119,-0.2087,1.2725,-8.116,-18.449,4.090,-51.02,-42.93,-0.52,2.77,3.29
6838,1014.58,978.32,905.79,0.1033,0.0383,1.1895,0.334,-1.020,-0.538,-5.73,2.43,0.2480,-0.0093,0.9949,0.214,-0.234,0.341,-14.42,-0.52,0.9611,-0.1467,0.0369,-11.353,-44.953,-4.994,-52.71,-43.86,-0.52,2.40,2.92
6852,1199.12,1356.26,1304.69,0.1028,0.0352,1.1934,0.379,-1.173,-0.355,-5.73,2.43,0.2537,-0.0107,0.9939,0.137,-0.188,0.280,-14.42,-0.52,0.9578,0.0402,0.2433,-14.437,-56.571,-10.383,-53.97,-43.00,-0.53,1.97,2.49
6877,1629.45,1565.79,1601.25,0.1106,0.0361,1.1973,0.502,-0.608,0.409,-5.74,2.42,0.2532,-0.0134,0.9912,0.015,-0.127,0.234,-14.42,-0.52,1.0237,-0.1863,0.3462,-0.498,-54.602,-5.207,-55.60,-42.72,-0.53,1.46,1.98
6892,1330.48,1299.85,1383.66,0.1057,0.0391,1.1897,0.471,-0.577,0.409,-5.73,2.42,0.2515,-0.0154,0.9954,-0.260,0.072,0.265,-14.41,-0.54,0.9924,-0.1216,0.2162,-8.544,-58.938,-10.978,-56.84,-42.57,-0.53,0.89,1.42
6916,1626.23,1702.78,1602.86,0.1069,0.0349,1.1875,0.608,0.293,0.638,-5.72,2.42,0.2507,-0.0137,0.9958,-0.137,0.087,0.310,-14.41,-0.54,1.0608,-0.1409,0.1700,-14.757,-38.144,-0.994,-58.20,-42.87,-0.53,0.27,0.80
6931,1864.76,1858.32,1742.27,0.1055,0.0400,1.1951,0.547,0.461,0.348,-5.70,2.42,0.2559,-0.0117,0.9863,-0.137,-0.005,0.326,-14.41,-0.55,1.0616,-0.1436,0.1515,-30.650,-39.747,-7.910,-59.18,-43.32,-0.53,-0.38,0.15
6956,1136.26,1199.12,1256.34,0.1055,0.0408,1.1926,0.578,0.339,0.180,-5.67,2.42,0.2549,-0.0078,0.9919,0.137,-0.402,0.295,-14.42,-0.54,0.9503,-0.0895,0.1007,-17.719,-40.678,1.312,-60.62,-43.72,-0.54,-1.08,-0.55
6971,1145.13,1237.00,1300.66,0.1072,0.0366,1.1951,0.578,0.736,0.516,-5.65,2.42,0.2480,-0.0081,0.9902,0.137,-0.234,0.158,-14.41,-0.54,0.9695,-0.1392,0.1279,-21.108,-35.961,16.930,-61.51,-44.10,-0.54,-1.80,-1.26
6995,1792.23,1730.18,1685.05,0.1016,0.0415,1.1943,0.654,1.316,0.424,-5.60,2.42,0.2527,-0.0063,0.9949,-0.000,-0.081,0.295,-14.41,-0.54,0.9572,-0.1597,0.1370,-7.444,-18.541,0.564,-62.28,-44.38,-0.55,-2.53,-1.98
7010,1515.82,1456.19,1501.32,0.0981,0.0381,1.1899,0.517,0.827,0.424,-5.57,2.42,0.2539,-0.0039,0.9956,0.015,-0.020,0.219,-14.41,-0.53,0.9496,-0.1003,0.0776,7.502,-14.938,-5.574,-62.89,-44.43,-0.56,-3.25,-2.69
7035,1388.50,1512.60,1468.28,0.1006,0.0369,1.1885,0.456,-0.745,-0.034,-5.58,2.42,0.2556,-0.0081,0.9905,0.321,-0.341,0.097,-14.42,-0.52,1.0194,-0.1279,0.1528,5.426,-26.800,-3.085,-63.87,-44.21,-0.57,-3.99,-3.41
7049,1700.37,1766.45,1637.51,0.1030,0.0369,1.1904,0.364,-1.340,-0.401,-5.58,2.41,0.2556,-0.0120,0.9951,0.214,-0.356,0.310,-14.43,-0.52,0.9758,-0.1141,0.1200,2.266,-22.938,4.075,-64.53,-44.17,-0.58,-4.72,-4.14
7074,1237.00,1228.13,1333.70,0.1062,0.0408,1.1929,0.517,-0.867,0.393,-5.60,2.41,0.2512,-0.0090,0.9922,0.031,-0.096,0.188,-14.42,-0.52,1.1104,-0.2653,0.2136,4.739,-22.113,-34.810,-65.23,-44.19,-0.59,-5.45,-4.86
7089,1147.55,1202.34,1280.51,0.1062,0.0393,1.1946,0.563,-0.592,0.439,-5.59,2.41,0.2559,-0.0146,0.9941,0.076,-0.066,0.417,-14.43,-0.53,1.1017,-0.2256,0.1766,27.624,-31.075,-51.604,-65.88,-43.95,-0.60,-6.17,-5.58
7113,1884.10,1838.17,1755.16,0.1062,0.0381,1.1965,0.517,-0.363,0.561,-5.59,2.41,0.2532,-0.0166,0.9846,0.031,0.087,0.387,-14.42,-0.53,1.1235,-0.0378,-0.0182,-61.826,-28.342,-9.223,-67.00,-46.88,-0.60,-6.92,-6.32
7128,1748.72,1672.16,1675.38,0.1035,0.0381,1.1990,0.532,0.201,0.470,-5.58,2.41,0.2585,-0.0137,0.9893,0.260,-0.005,0.417,-14.43,-0.53,1.0527,-0.0470,-0.0511,-19.658,-28.281,-17.864,-67.80,-48.98,-0.61,-7.68,-7.07
7153,1211.21,1340.95,1317.58,0.1040,0.0396,1.2007,0.486,2.705,-0.172,-5.50,2.41,0.2510,-0.0083,0.9915,0.275,-0.035,1.608,-14.42,-0.53,0.9111,0.1414,-0.1493,-5.337,-4.556,-13.345,-68.10,-45.39,-0.62,-8.41,-7.79
7167,1482.78,1589.96,1485.20,0.0996,0.0391,1.1970,0.379,3.545,-1.439,-5.43,2.40,0.2559,-0.0081,0.9949,0.107,-0.142,0.570,-14.43,-0.52,0.9579,-0.0175,-0.0142,-13.841,6.207,20.136,-68.42,-47.27,-0.64,-9.11,-8.48
7192,1382.05,1366.74,1423.96,0.0981,0.0427,1.1973,0.669,3.331,-0.431,-5.34,2.41,0.2554,-0.0107,0.9929,-0.000,-0.005,0.295,-14.43,-0.53,0.9680,-0.1086,0.1041,-5.276,10.391,7.480,-68.42,-47.37,-0.66,-9.78,-9.12
7207,1199.12,1224.10,1317.58,0.1074,0.0603,1.1880,1.799,0.950,6.561,-5.32,2.45,0.2529,-0.0076,0.9949,-0.092,-0.081,0.234,-14.42,-0.53,1.0249,-0.0983,0.0593,1.976,9.871,1.968,-68.58,-47.57,-0.68,-10.41,-9.72
7231,1842.20,1832.53,1718.90,0.0916,0.0300,1.1799,0.792,1.667,3.294,-5.26,2.45,0.2573,-0.0066,0.9968,0.031,0.011,0.188,-14.42,-0.52,1.0764,-0.1208,0.1027,-7.643,10.055,4.228,-68.60,-47.80,-0.70,-11.00,-10.29
7246,1855.90,1818.02,1722.93,0.0979,0.0396,1.1914,0.654,0.568,0.729,-5.24,2.45,0.2568,-0.0105,0.9941,0.107,-0.157,0.097,-14.43,-0.52,1.0122,-0.0995,0.0996,-0.650,-1.884,7.419,-68.90,-47.75,-0.73,-11.57,-10.84
7271,1137.07,1228.94,1283.74,0.0969,0.0388,1.1899,0.440,-1.035,0.287,-5.26,2.45,0.2561,-0.0112,0.9944,-0.061,-0.005,0.280,-14.43,-0.53,0.9800,-0.0969,0.0702,-6.605,4.971,4.533,-69.06,-48.04,-0.75,-12.11,-11.36
7285,1288.57,1411.06,1377.22,0.0957,0.0369,1.1934,0.303,-2.333,-0.965,-5.27,2.44,0.2539,-0.0105,0.9878,-0.000,0.011,0.142,-14.43,-0.53,1.0270,-0.1077,0.0721,-1.414,1.673,0.930,-69.31,-48.22,-0.77,-12.63,-11.86
7310,1561.76,1510.99,1556.92,0.0935,0.0398,1.1938,0.395,-1.753,-0.416,-5.30,2.44,0.2527,-0.0132,0.9890,-0.107,0.041,0.112,-14.42,-0.54,0.9548,-0.1018,0.0674,6.220,7.505,3.327,-69.39,-48.24,-0.78,-13.12,-12.33
7325,1320.81,1296.63,1392.53,0.1001,0.0337,1.1951,0.502,-1.722,-0.416,-5.32,2.43,0.2512,-0.0073,0.9929,-0.107,0.179,0.204,-14.42,-0.53,0.9982,-0.1414,0.1053,3.487,6.268,-0.062,-69.52,-48.29,-0.80,-13.58,-12.78
7349,1630.26,1697.95,1598.02,0.0991,0.0435,1.1978,0.334,-3.096,-1.622,-5.38,2.43,0.2551,-0.0110,0.9917,-0.183,0.133,0.051,-14.41,-0.54,1.0811,-0.1030,0.0121,2.250,10.146,-1.620,-69.57,-48.93,-0.80,-14.01,-13.20
7364,1869.60,1867.18,1740.66,0.1001,0.0447,1.1931,0.120,-3.661,-1.881,-5.42,2.42,0.2563,-0.0098,0.9980,-0.153,0.163,0.142,-14.41,-0.54,0.9465,-0.0499,0.0331,7.655,15.200,5.724,-69.69,-48.98,-0.81,-14.41,-13.60
7389,1133.04,1218.46,1278.90,0.1072,0.0454,1.1873,0.211,-2.577,1.080,-5.48,2.42,0.2524,-0.0027,0.9956,-0.061,0.133,0.265,-14.41,-0.54,0.9043,-0.0288,0.0112,-16.864,20.482,2.518,-69.56,-49.78,-0.80,-14.77,-13.97
7403,1165.27,1289.38,1320.00,0.0513,0.2893,1.2500,-1.071,-11.142,25.767,-5.57,2.62,0.2546,-0.0095,0.9929,-0.122,-0.005,0.310,-14.40,-0.54,0.9066,-0.0463,0.0591,-2.605,30.253,0.701,-69.44,-49.58,-0.80,-15.09,-14.30
7428,1757.58,1696.34,1683.44,0.1116,0.0591,1.1921,0.624,1.392,0.332,-5.53,2.64,0.2537,-0.0076,0.9900,-0.015,0.056,0.219,-14.40,-0.54,0.8691,-0.1060,0.1628,10.144,40.528,-14.184,-68.62,-49.00,-0.79,-15.34,-14.55
7443,1491.65,1446.52,1493.26,0.0513,0.3064,1.2546,2.807,-14.821,27.951,-5.68,2.90,0.2561,-0.0051,0.9956,-0.015,0.148,0.280,-14.40,-0.53,0.8746,-0.1008,0.1862,13.166,45.169,-25.421,-68.12,-48.40,-0.78,-15.52,-14.74
7468,1382.05,1490.84,1405.42,0.0991,0.0371,1.1895,0.639,1.072,1.141,-5.64,2.90,0.2578,-0.0100,0.9961,-0.076,-0.020,0.173,-14.40,-0.54,1.0427,-0.0870,0.1731,-26.925,46.940,-51.650,-67.21,-48.62,-0.77,-15.63,-14.86
7482,1704.40,1753.55,1631.87,0.1145,0.0632,1.1741,0.517,-2.134,0.332,-5.67,2.91,0.2539,-0.0076,0.9902,-0.305,0.270,0.173,-14.40,-0.54,1.1375,-0.0302,0.1144,-0.711,34.314,-36.581,-67.05,-47.96,-0.75,-15.72,-14.96
7507,1236.19,1220.88,1326.45,0.1045,0.0293,1.2002,0.089,-4.882,-0.675,-5.77,2.88,0.2554,-0.0095,0.9878,-0.794,0.117,-2.560,-14.40,-0.56,1.0326,-0.1682,0.2445,6.174,20.345,5.006,-66.70,-47.54,-0.74,-15.77,-15.03
7521,1149.96,1205.57,1278.90,0.1079,0.0295,1.1943,0.059,-3.844,-1.652,-5.81,2.85,0.2554,-0.0093,0.9932,-0.626,-0.112,-2.087,-14.40,-0.57,1.0033,-0.0961,0.2303,-10.834,10.650,12.106,-66.73,-47.20,-0.72,-15.81,-15.10
7546,1867.18,1834.95,1742.27,0.1042,0.0347,1.2002,0.349,-1.615,-0.004,-5.84,2.83,0.2593,-0.0120,0.9915,-0.183,0.163,-0.193,-14.40,-0.57,1.0555,-0.0410,0.2335,-12.406,16.681,-6.749,-66.54,-46.75,-0.69,-15.84,-15.15
7561,1704.40,1622.20,1638.32,0.1077,0.0405,1.1855,0.288,-1.692,-0.568,-5.85,2.82,0.2561,-0.0098,0.9934,-0.061,0.026,0.249,-14.40,-0.57,1.0153,-0.0498,0.2532,10.021,16.803,-30.536,-66.48,-45.90,-0.68,-15.86,-15.19
7586,1237.00,1364.32,1350.62,0.1057,0.1199,1.1887,0.273,-4.989,3.157,-5.95,2.89,0.2539,-0.0039,0.9907,-0.046,0.011,0.341,-14.40,-0.57,1.0608,-0.0039,0.2386,15.884,3.108,-28.230,-66.63,-44.61,-0.65,-15.88,-15.23
7600,1522.27,1626.23,1514.21,0.0366,-0.1240,1.2161,0.395,-0.333,20.119,-5.87,2.72,0.2507,-0.0068,0.9868,-0.076,-0.020,0.280,-14.40,-0.57,0.9844,-0.0233,0.1984,-7.078,-0.602,-11.009,-66.87,-43.96,-0.63,-15.93,-15.30
7625,1372.38,1324.03,1433.63,-0.0356,-0.2424,1.2910,3.158,-3.997,36.119,-5.82,2.53,0.2568,-0.0095,0.9971,-0.031,0.087,0.326,-14.40,-0.57,1.0365,0.0360,0.2032,-8.391,-7.258,-11.604,-67.29,-43.08,-0.62,-16.00,-15.38
7640,1182.20,1222.49,1311.14,0.1313,-0.2344,1.1790,1.845,2.598,13.813,-5.79,2.28,0.2537,-0.0027,0.9915,-0.321,0.240,0.173,-14.39,-0.56,1.0817,0.0039,0.2196,2.082,-4.235,-9.146,-67.57,-42.17,-0.61,-16.09,-15.48
7664,1843.81,1828.50,1710.04,0.1089,0.0376,1.1890,0.715,-1.554,0.454,-5.82,2.29,0.2554,-0.0127,0.9917,-0.031,0.072,0.188,-14.39,-0.57,1.0625,-0.0406,0.2184,-14.406,-10.419,-3.360,-68.04,-41.89,-0.59,-16.20,-15.61
7679,1854.29,1768.86,1715.68,0.1035,0.0356,1.1855,0.608,-2.486,0.256,-5.84,2.28,0.2571,-0.0125,0.9919,-0.351,0.209,0.142,-14.39,-0.57,1.0535,-0.0276,0.1755,-22.009,-12.083,5.602,-68.46,-41.54,-0.58,-16.34,-15.76
7704,1164.47,1237.00,1299.85,0.1099,0.0361,1.1995,0.440,-2.043,0.653,-5.87,2.28,0.2556,-0.0071,0.9829,0.153,-0.081,0.280,-14.40,-0.57,0.9757,-0.0022,0.1641,-16.482,-3.228,9.449,-68.78,-41.12,-0.57,-16.48,-15.91
7718,1314.36,1423.96,1410.26,0.1125,0.0417,1.1855,0.654,0.247,1.645,-5.86,2.29,0.2571,-0.0115,0.9990,0.031,0.011,0.478,-14.40,-0.57,0.9690,-0.0127,0.2036,-0.055,-8.724,5.907,-69.09,-40.37,-0.56,-16.64,-16.08
7743,1517.44,1493.26,1523.88,0.1091,0.0391,1.1960,0.654,0.598,1.447,-5.83,2.30,0.2507,-0.0115,0.9917,-0.153,0.087,0.952,-14.39,-0.57,0.9829,-0.0363,0.2274,-3.963,-16.800,14.701,-69.65,-39.84,-0.55,-16.83,-16.28
7758,1307.91,1289.38,1390.11,0.1074,0.0364,1.1951,0.624,0.629,1.584,-5.81,2.29,0.2563,-0.0110,0.9929,-0.107,0.026,0.341,-14.39,-0.58,1.0649,-0.0470,0.2343,-9.093,-18.006,14.625,-70.06,-39.41,-0.54,-17.03,-16.49
7783,1623.81,1678.61,1570.62,0.1125,0.0366,1.1946,1.112,3.041,3.630,-5.73,2.31,0.2554,-0.0115,0.9910,-0.214,0.133,0.417,-14.39,-0.58,0.9884,-0.0270,0.2034,-1.887,-24.296,-3.665,-70.82,-38.81,-0.54,-17.28,-16.74
7797,1860.73,1843.81,1720.51,0.1094,0.0422,1.1899,1.097,4.201,4.500,-5.66,2.32,0.2559,-0.0117,0.9890,0.275,-0.295,0.280,-14.40,-0.58,1.0023,-0.0261,0.1963,2.342,-24.754,-12.612,-71.34,-38.16,-0.54,-17.55,-17.01
7822,1168.50,1228.94,1315.16,0.1033,0.0332,1.1904,0.746,0.721,1.661,-5.63,2.32,0.2556,-0.0103,0.9988,0.061,0.087,0.280,-14.39,-0.58,0.9503,-0.0275,0.2056,-9.292,-40.709,-10.917,-72.46,-37.77,-0.55,-17.89,-17.34
7837,1173.33,1273.26,1328.06,0.0957,0.0344,1.1907,1.143,1.408,2.531,-5.59,2.33,0.2483,-0.0054,0.9963,-0.061,-0.050,0.249,-14.39,-0.58,0.9352,-0.0264,0.1942,-14.223,-48.373,-4.398,-73.26,-37.37,-0.56,-18.26,-17.70
7862,1780.95,1714.87,1664.91,0.0996,0.0234,1.2083,0.868,1.179,2.271,-5.54,2.32,0.2542,-0.0120,0.9961,-0.183,0.117,0.188,-14.38,-0.58,0.9897,-0.0232,0.1498,-6.513,-55.274,-8.994,-74.77,-36.96,-0.57,-18.71,-18.15
7876,1493.26,1443.30,1511.79,0.0962,0.0410,1.1990,0.731,0.980,2.363,-5.51,2.33,0.2524,-0.0093,0.9841,-0.107,0.041,0.249,-14.38,-0.58,0.9794,-0.0063,0.1062,-7.444,-54.342,-14.490,-75.72,-36.40,-0.58,-19.20,-18.62
7901,1400.59,1515.82,1470.70,0.1072,0.0513,1.1868,0.669,1.224,3.065,-5.47,2.35,0.2573,-0.0103,0.9988,-0.107,-0.112,0.005,-14.39,-0.59,1.0465,-0.0156,0.0682,3.502,-55.564,-12.612,-77.28,-35.84,-0.59,-19.77,-19.18
7916,1689.89,1726.96,1613.33,0.1055,0.0393,1.1833,1.265,1.591,2.729,-5.44,2.35,0.2522,-0.0100,0.9897,-0.443,0.179,-0.636,-14.38,-0.59,1.0857,-0.0198,0.0712,1.182,-58.251,-11.009,-78.29,-35.42,-0.61,-20.37,-19.76
7940,1270.04,1268.42,1376.41,0.1016,0.0496,1.1821,1.479,-0.409,0.729,-5.44,2.39,0.2517,-0.0090,0.9905,-0.000,-0.142,0.127,-14.38,-0.59,1.0254,0.0067,0.0638,2.327,-68.174,-8.215,-80.11,-34.53,-0.62,-21.06,-20.44
7955,1169.30,1237.00,1327.25,0.0920,0.0071,1.2109,2.807,0.858,1.905,-5.40,2.39,0.2500,-0.0122,0.9922,-0.076,0.117,0.249,-14.38,-0.59,0.9996,0.0381,0.0367,-2.895,-73.701,-8.841,-81.31,-32.96,-0.64,-21.78,-21.15
7980,1855.09,1793.04,1694.73,0.1023,0.0466,1.1931,-0.216,-0.241,0.180,-5.40,2.38,0.2510,-0.0134,0.9910,0.031,-0.081,0.326,-14.38,-0.60,1.0316,0.0874,-0.0446,-8.971,-70.342,-6.108,-83.08,-30.18,-0.65,-22.58,-21.93
7994,1713.26,1637.51,1602.86,0.1577,0.0789,1.2251,-0.659,-1.249,-3.469,-5.46,2.40,0.2566,-0.0095,0.9949,-0.199,0.087,0.326,-14.38,-0.60,1.0039,0.0531,-0.0328,-8.101,-67.304,-5.345,-84.10,-27.26,-0.66,-23.39,-22.73
8019,1237.00,1361.90,1392.53,0.0957,0.0447,1.1836,-0.399,-1.508,-0.721,-5.48,2.38,0.2485,-0.0107,0.9919,-0.046,0.026,0.249,-14.37,-0.60,1.0271,0.0155,0.0312,-4.116,-58.907,2.930,-85.61,-26.29,-0.66,-24.25,-23.58
8034,1467.47,1573.85,1508.57,0.1033,0.0361,1.1965,0.364,-1.508,-0.309,-5.49,2.38,0.2539,-0.0083,0.9954,-0.000,-0.157,0.295,-14.37,-0.60,1.0090,0.0022,0.0217,-4.101,-68.938,3.648,-86.67,-25.70,-0.67,-25.12,-24.45
8059,1399.78,1365.13,1462.64,0.1047,0.0391,1.1909,1.418,-0.165,1.050,-5.48,2.40,0.2534,-0.0056,0.9988,-1.084,0.423,-0.117,-14.36,-0.62,1.0198,0.0083,-0.0464,-6.192,-86.724,5.159,-88.79,-21.94,-0.67,-26.08,-25.40
8073,1227.33,1267.62,1380.44,0.1016,0.0415,1.1887,2.211,0.675,2.103,-5.46,2.43,0.2561,-0.0073,0.9971,-1.786,0.469,-2.392,-14.35,-0.64,1.0232,0.0443,-0.1176,-11.918,-87.976,10.869,-89.94,-18.49,-0.68,-27.05,-26.37
8098,1790.62,1756.78,1634.29,0.1011,0.0427,1.1956,1.937,0.400,1.615,-5.44,2.46,0.2527,-0.0144,0.9922,-3.420,1.858,-1.171,-14.30,-0.73,0.9612,0.0724,-0.1918,-14.956,-86.525,16.197,-91.80,-15.30,-0.68,-28.09,-27.40
8113,1840.59,1766.45,1668.94,0.0986,0.0383,1.1931,2.196,0.385,1.584,-5.42,2.48,0.2534,-0.0173,0.9895,-1.176,1.125,-0.163,-14.29,-0.75,0.9487,0.0842,-0.2583,-23.261,-87.655,18.274,-92.70,-12.08,-0.69,-29.11,-28.43
8138,1172.53,1282.93,1356.26,0.0969,0.0439,1.1909,0.944,-0.577,0.485,-5.42,2.50,0.2473,-0.0134,0.9868,0.290,0.881,0.448,-14.26,-0.74,0.9851,0.0262,-0.2905,-5.521,-90.632,28.396,-94.52,-8.48,-0.69,-30.20,-29.51
8152,1271.65,1401.39,1397.36,0.0991,0.0405,1.1951,0.288,-1.493,-0.401,-5.42,2.49,0.2554,-0.0085,0.9932,1.252,-0.035,0.692,-14.27,-0.72,1.0148,-0.0983,-0.2347,3.105,-92.800,35.587,-95.47,-11.41,-0.69,-31.27,-30.58
8177,1597.22,1534.36,1580.29,0.1409,-0.2485,1.0742,-8.063,-11.508,-11.301,-5.74,1.99,0.2542,-0.0151,0.9883,0.198,0.469,1.196,-14.26,-0.72,1.0299,-0.0709,-0.3093,4.021,-105.518,48.655,-97.58,-14.43,-0.67,-32.40,-31.73
8191,1343.37,1335.31,1492.45,0.1416,0.1389,1.2451,-4.888,-4.547,-27.317,-5.82,2.00,0.2493,-0.0129,0.9929,0.443,-0.035,0.555,-14.26,-0.71,0.9517,-0.0881,-0.3397,9.182,-100.403,43.739,-98.46,-17.32,-0.64,-33.50,-32.86
8216,1577.07,1635.09,1508.57,0.1033,-0.0715,1.1692,0.318,-1.035,-0.965,-5.83,1.90,0.2559,-0.0369,0.9641,1.496,-0.020,0.891,-14.27,-0.71,0.9296,-0.0592,-0.4471,0.632,-105.533,30.319,-100.34,-20.40,-0.62,-34.66,-34.04
8231,1816.41,1758.39,1616.56,0.0974,0.0583,1.2021,-0.018,-2.989,-1.637,-5.85,1.92,0.2454,-0.0139,0.9802,2.122,-1.760,1.868,-14.29,-0.68,0.8344,0.0044,-0.4955,7.869,-152.434,39.709,-101.70,-16.29,-0.59,-35.82,-35.23
8256,1187.03,1267.62,1397.36,0.1079,0.1050,1.1846,-0.903,-4.043,-23.240,-5.93,1.96,0.2571,-0.0073,1.0032,0.870,0.377,3.181,-14.28,-0.65,1.0642,0.0380,-0.7137,-58.650,-88.266,53.159,-102.93,-13.85,-0.57,-36.99,-36.42
8270,1176.56,1287.77,1365.13,0.0835,0.2107,1.1963,-0.216,-5.066,-13.515,-5.97,2.12,0.2573,-0.0098,0.9958,0.794,-0.127,2.081,-14.29,-0.64,0.8563,-0.1466,-0.4746,-1.811,-76.373,54.564,-103.17,-16.86,-0.54,-38.09,-37.55
8295,1781.76,1689.08,1660.88,-0.0188,0.2119,1.2429,-1.178,-3.249,-5.744,-5.91,2.24,0.2505,-0.0088,0.9861,-0.687,0.957,1.425,-14.26,-0.65,0.9288,-0.1270,-0.5098,-1.612,-42.022,27.770,-103.34,-19.88,-0.52,-39.13,-38.61
8310,1546.45,1508.57,1568.21,-0.0071,0.1912,1.2415,2.013,-1.631,-3.347,-5.81,2.40,0.2542,-0.0056,1.0000,-1.359,0.866,0.341,-14.25,-0.67,0.9539,-0.1251,-0.5531,-5.719,-44.678,32.060,-103.10,-22.91,-0.50,-40.09,-39.58
8334,1379.63,1457.00,1401.39,0.0984,0.0537,1.2017,0.303,-1.447,0.531,-5.82,2.41,0.2458,-0.0134,0.9890,-3.328,2.301,-0.346,-14.19,-0.75,1.0167,-0.1592,-0.6085,20.846,-25.884,33.816,-102.83,-25.25,-0.48,-40.96,-40.47
8349,1615.75,1648.79,1501.32,0.1011,0.0444,1.1904,0.410,-1.783,0.332,-5.83,2.41,0.2510,-0.0129,0.9915,-2.092,1.354,0.158,-14.17,-0.78,0.7996,-0.0553,-0.6140,-3.704,-25.930,34.319,-102.19,-28.30,-0.46,-41.72,-41.26
8374,1328.06,1319.19,1435.24,0.1038,0.0376,1.1970,0.532,-1.585,0.287,-5.85,2.41,0.2542,-0.0112,1.0000,0.427,-0.524,0.005,-14.19,-0.77,0.8438,-0.1667,-0.5280,1.838,-19.686,56.106,-101.76,-30.94,-0.45,-42.40,-41.95
8389,1209.60,1276.48,1371.58,0.0991,0.0493,1.1853,0.440,-1.432,0.134,-5.85,2.42,0.2585,-0.0137,0.9985,-0.214,0.728,0.570,-14.18,-0.77,0.8263,-0.1820,-0.5046,9.334,-17.930,52.212,-101.12,-33.39,-0.43,-42.99,-42.56
8413,1809.16,1778.53,1632.67,0.1079,0.0356,1.1943,0.547,-2.333,-0.767,-5.89,2.42,0.2493,-0.0127,0.9856,0.718,0.911,1.120,-14.16,-0.75,0.8286,-0.2065,-0.5453,9.273,-43.716,57.754,-101.26,-35.68,-0.41,-43.54,-43.13
8428,1757.58,1675.38,1612.53,0.1125,0.0376,1.1929,0.471,-1.707,0.103,-5.90,2.41,0.2510,-0.0085,0.9910,1.405,0.072,1.562,-14.16,-0.73,0.8826,-0.2245,-0.5817,13.518,-41.167,46.823,-100.92,-37.95,-0.39,-44.03,-43.64
8453,1207.99,1341.76,1348.21,0.1077,0.0381,1.1921,0.486,-0.715,0.607,-5.91,2.41,0.2424,-0.0010,0.9971,1.206,-1.715,1.288,-14.19,-0.68,0.8164,-0.2131,-0.5974,6.754,-34.663,50.289,-100.79,-40.23,-0.37,-44.47,-44.10
8468,1394.95,1499.71,1430.40,0.1008,0.0376,1.1902,0.532,-0.623,0.577,-5.89,2.41,0.2512,-0.0044,0.9912,-0.153,-0.783,-0.041,-14.20,-0.68,0.8435,-0.2184,-0.6208,6.968,-23.716,36.014,-100.16,-42.54,-0.36,-44.84,-44.49
8492,1458.61,1443.30,1500.51,0.1067,0.0383,1.1934,0.440,-0.226,0.546,-5.88,2.41,0.2568,-0.0171,0.9963,-0.840,-1.821,-2.361,-14.25,-0.70,0.7601,-0.2556,-0.4835,4.373,-38.235,44.212,-100.16,-44.63,-0.35,-45.19,-44.84
8507,1303.88,1328.86,1405.42,0.1045,0.0479,1.1836,0.654,0.598,1.523,-5.86,2.41,0.2520,-0.0132,1.0010,-0.061,-0.356,-0.606,-14.25,-0.71,0.7622,-0.2715,-0.5253,0.373,-50.342,49.571,-99.93,-46.78,-0.34,-45.49,-45.15
8532,1713.26,1722.93,1575.46,0.1062,0.0347,1.1921,0.517,0.385,0.439,-5.83,2.41,0.2507,-0.0100,0.9902,1.756,-0.905,1.089,-14.28,-0.66,0.7159,-0.2878,-0.5579,8.327,-60.846,50.441,-100.38,-48.70,-0.34,-45.81,-45.48
8546,1813.19,1766.45,1660.88,0.1096,0.0322,1.1958,0.578,0.186,0.241,-5.82,2.40,0.2451,-0.0129,0.9915,0.977,-0.157,2.555,-14.27,-0.65,0.7468,-0.3091,-0.5872,8.663,-68.709,49.159,-100.33,-50.65,-0.34,-46.11,-45.77
8571,1186.23,1276.48,1334.51,0.1052,0.0366,1.1868,0.502,-0.486,0.516,-5.82,2.40,0.2485,-0.0088,0.9968,0.977,-0.814,1.471,-14.28,-0.62,0.7419,-0.3270,-0.6409,11.456,-73.212,46.686,-101.01,-52.41,-0.33,-46.43,-46.09
8586,1259.56,1346.59,1374.80,0.1047,0.0352,1.1914,0.456,-0.455,0.378,-5.81,2.39,0.2490,-0.0098,0.9941,0.840,-0.707,0.997,-14.29,-0.61,0.6987,-0.3053,-0.6941,8.831,-70.739,47.266,-100.85,-54.37,-0.34,-46.72,-46.38
8610,1638.32,1585.93,1602.86,0.1030,0.0393,1.1978,0.456,-0.272,0.622,-5.80,2.39,0.2568,-0.0115,1.0022,0.794,-0.524,2.142,-14.30,-0.59,0.6323,-0.2449,-0.7660,11.075,-55.854,54.716,-100.95,-56.25,-0.34,-46.99,-46.66
8625,1402.20,1372.38,1458.61,0.1033,0.0381,1.1917,0.364,0.110,0.332,-5.78,2.39,0.2556,-0.0103,0.9871,0.641,0.087,2.341,-14.31,-0.58,0.6671,-0.3157,-0.7854,-5.780,-56.907,68.548,-100.51,-58.37,-0.34,-47.22,-46.88
8650,1527.11,1604.47,1510.18,0.1211,0.0784,1.1873,0.624,0.400,3.309,-5.77,2.43,0.2576,-0.0085,0.9910,0.137,0.011,1.440,-14.31,-0.58,0.6467,-0.3591,-0.7893,24.953,-43.136,52.823,-100.28,-59.71,-0.35,-47.42,-47.07
8664,1766.45,1768.86,1659.27,0.1167,0.0566,1.1855,1.418,-0.455,10.607,-5.77,2.46,0.2527,-0.0120,0.9902,-0.244,-0.081,0.127,-14.31,-0.58,0.6564,-0.4225,-0.7705,28.724,-40.342,58.808,-99.59,-61.13,-0.35,-47.55,-47.20
8689,1224.91,1253.11,1343.37,0.1021,0.0754,1.1960,0.120,-1.173,7.111,-5.78,2.48,0.2842,-0.0044,1.0295,0.977,-2.982,-1.827,-14.41,-0.55,0.6128,-0.4197,-0.7756,26.174,-31.884,62.793,-99.07,-62.30,-0.36,-47.64,-47.28
8704,1192.67,1275.68,1316.78,0.0981,-0.0085,1.1831,0.837,1.835,11.813,-5.73,2.44,0.2527,-0.0088,0.9998,-0.153,-0.341,-1.048,-14.41,-0.55,0.5474,-0.3923,-0.7444,34.327,-24.739,59.648,-98.10,-63.61,-0.37,-47.65,-47.28
8729,1808.35,1726.96,1679.41,0.1135,0.0413,1.1892,1.295,-1.493,11.065,-5.77,2.46,0.2593,-0.0085,0.9961,0.290,-0.188,0.280,-14.42,-0.54,0.6783,-0.5804,-0.8423,25.487,-8.663,47.983,-97.02,-64.63,-0.38,-47.59,-47.21
8743,1573.04,1519.05,1568.21,0.1040,0.0332,1.1895,0.837,-1.661,8.195,-5.77,2.45,0.2527,-0.0115,0.9868,0.076,0.270,1.181,-14.41,-0.55,0.6010,-0.4366,-0.7810,3.411,31.184,23.556,-95.31,-66.30,-0.39,-47.41,-47.02
8768,1322.42,1443.30,1419.12,0.1040,0.0312,1.2002,0.807,-2.134,7.141,-5.81,2.45,0.2512,-0.0029,0.9934,0.382,0.438,2.310,-14.40,-0.53,0.5376,-0.5089,-0.6129,18.907,-21.518,69.617,-94.61,-67.32,-0.39,-47.19,-46.80
8783,1585.13,1636.70,1547.25,0.1030,0.0278,1.1975,1.112,-2.287,9.279,-5.82,2.45,0.2500,-0.0090,0.9912,-0.122,0.850,0.799,-14.38,-0.53,0.7168,-0.6714,-0.8146,31.166,-39.732,83.541,-93.97,-68.34,-0.40,-46.95,-46.55
8808,1325.64,1314.36,1394.95,0.0994,0.0283,1.1978,1.082,-2.715,6.424,-5.87,2.45,0.2397,-0.0054,0.9912,-1.435,1.965,-0.590,-14.32,-0.56,0.5389,-0.4803,-0.6787,16.983,13.856,11.037,-92.42,-69.45,-0.39,-46.60,-46.21
8822,1191.06,1237.00,1323.22,0.1035,0.0349,1.1997,1.051,-2.669,5.920,-5.89,2.45,0.2576,-0.0132,0.9976,-3.527,3.308,-1.369,-14.27,-0.62,0.5061,-0.4891,-0.5997,21.365,-19.319,46.518,-91.51,-70.57,-0.38,-46.22,-45.84
8847,1818.02,1788.21,1721.32,0.1111,0.0237,1.2100,0.502,-1.386,0.836,-5.91,2.44,0.2471,-0.0085,0.9917,-2.229,2.881,0.845,-14.20,-0.67,0.4181,-0.5648,-0.4337,30.724,-40.800,40.930,-91.28,-70.97,-0.36,-45.85,-45.48
8862,1782.56,1701.17,1676.19,0.1094,0.0383,1.2043,0.318,-0.806,0.592,-5.91,2.43,0.2424,-0.0103,0.9893,-1.053,2.163,1.013,-14.16,-0.68,0.5239,-0.3898,-0.6646,10.922,-44.464,39.495,-90.77,-72.38,-0.35,-45.46,-45.12
8887,1186.23,1270.84,1343.37,0.1018,0.0374,1.1990,0.608,-0.745,0.409,-5.90,2.43,0.2429,-0.0110,0.9841,1.405,0.560,2.814,-14.14,-0.65,0.5997,-0.5486,-0.7343,9.701,-58.693,78.228,-91.06,-73.56,-0.33,-45.13,-44.80
8901,1382.86,1481.98,1439.27,0.1040,0.0388,1.1912,0.486,-0.730,0.332,-5.89,2.43,0.2444,-0.0078,0.9949,1.756,-0.692,1.211,-14.14,-0.62,0.4696,-0.6206,-0.4822,2.388,-59.441,55.464,-90.70,-74.61,-0.31,-44.79,-44.48
8926,1477.14,1431.21,1488.42,0.1064,0.0398,1.1890,0.349,-0.852,-0.431,-5.90,2.43,0.2478,-0.0085,1.0029,1.023,-5.684,-5.369,-14.27,-0.59,0.4863,-0.6726,-0.6869,1.884,-86.052,37.587,-91.51,-75.79,-0.31,-44.53,-44.23
8940,1286.96,1293.41,1356.26,0.1050,0.0405,1.1880,0.425,-0.852,-0.859,-5.89,2.42,0.2634,-0.0105,0.9980,-0.595,-3.104,-7.201,-14.33,-0.60,0.4080,-0.6752,-0.7007,7.487,-96.587,39.113,-91.51,-76.89,-0.31,-44.29,-43.99
8965,1710.04,1739.85,1637.51,0.1069,0.0391,1.1936,0.517,-0.653,0.592,-5.90,2.42,0.2678,-0.0232,0.9929,-1.038,-0.554,-5.522,-14.36,-0.64,0.3361,-0.5964,-0.7798,-4.452,-95.793,18.457,-92.38,-78.31,-0.31,-44.13,-43.82
8980,1834.14,1780.15,1729.38,0.1074,0.0398,1.1941,0.624,-0.455,0.790,-5.89,2.42,0.2573,-0.0142,0.9893,0.183,-0.142,-0.865,-14.36,-0.64,0.3809,-0.5839,-0.9778,2.220,-87.029,18.090,-92.16,-79.69,-0.31,-43.97,-43.66
9005,1198.32,1253.11,1320.00,0.0986,0.0315,1.1865,0.624,3.392,0.653,-5.78,2.42,0.2651,-0.0190,0.9941,0.840,0.194,4.142,-14.37,-0.63,0.2908,-0.5150,-0.9342,3.579,-51.594,34.915,-91.87,-81.04,-0.32,-43.80,-43.48
9019,1237.00,1356.26,1356.26,0.1086,0.0266,1.1899,0.624,4.660,0.974,-5.70,2.41,0.2742,-0.0164,0.9993,2.443,0.896,7.929,-14.38,-0.60,0.3202,-0.6371,-0.9215,-0.956,-33.182,31.098,-90.83,-82.34,-0.33,-43.58,-43.25
9044,1668.94,1585.93,1602.86,0.1553,0.0469,1.1821,0.960,3.102,3.447,-5.66,2.43,0.2561,-0.0056,0.9895,1.679,1.217,10.555,-14.35,-0.55,0.2197,-0.7076,-0.7489,4.556,-32.663,26.548,-90.04,-83.31,-0.35,-43.32,-42.97
9058,1413.48,1379.63,1444.10,0.1028,0.0381,1.1987,1.952,3.514,6.271,-5.60,2.44,0.2808,0.0037,0.9717,1.450,0.499,6.784,-14.38,-0.52,0.2782,-0.7126,-0.9108,3.976,-28.907,18.671,-88.93,-84.43,-0.37,-43.01,-42.64
9083,1531.14,1599.63,1544.84,0.1196,0.0308,1.1777,0.639,1.972,0.485,-5.55,2.44,0.2507,-0.0090,1.0159,-0.122,5.308,5.822,-14.24,-0.52,0.2793,-0.6731,-0.9496,6.785,-0.892,-0.322,-87.44,-85.47,-0.38,-42.61,-42.23
9098,1789.82,1766.45,1701.98,0.0906,0.0479,1.1931,0.624,-0.745,-2.874,-5.54,2.44,0.2505,0.0010,1.0046,-0.763,5.430,4.127,-14.16,-0.52,0.2184,-0.5691,-0.9012,11.105,12.391,-0.902,-85.75,-86.55,-0.39,-42.13,-41.74
9122,1223.30,1237.00,1316.78,0.0964,0.0408,1.1880,0.624,0.873,-0.187,-5.50,2.45,0.2383,0.0071,1.0007,-3.313,-0.707,-4.148,-14.16,-0.58,0.2626,-0.6163,-0.8652,9.899,27.459,8.258,-83.64,-87.47,-0.40,-41.53,-41.14
9137,1198.32,1276.48,1348.21,0.1008,0.0354,1.2004,0.532,-0.882,-0.202,-5.50,2.44,0.2600,-0.0181,0.9976,-6.916,2.285,-3.537,-14.13,-0.69,0.2498,-0.6284,-0.7448,8.876,33.963,6.686,-81.77,-88.39,-0.40,-40.85,-40.45
9162,1799.49,1701.17,1688.28,0.0955,0.0181,1.2041,-0.292,-0.226,-6.309,-5.49,2.40,0.2332,-0.0098,0.9976,-12.015,7.400,7.074,-13.94,-0.98,0.2894,-0.6699,-0.7780,4.067,22.162,5.800,-79.91,-89.31,-0.40,-40.09,-39.69
9176,1563.37,1508.57,1551.28,0.1021,0.0417,1.2075,-0.292,0.553,-2.645,-5.47,2.39,0.2537,-0.0173,1.0112,-12.382,5.995,3.486,-13.85,-1.15,0.2941,-0.6632,-0.8324,7.670,27.612,0.548,-78.23,-90.25,-0.39,-39.26,-38.87
9201,1351.43,1439.27,1432.01,0.1025,0.0396,1.1938,0.547,-0.104,0.088,-5.46,2.39,0.2151,-0.0195,0.9834,-15.511,5.950,3.013,-13.68,-1.53,0.3153,-0.6805,-0.7972,6.953,33.551,-7.513,-76.18,-91.06,-0.36,-38.35,-37.98
9216,1614.14,1671.36,1585.93,0.0969,0.0381,1.1880,0.578,3.301,0.607,-5.39,2.39,0.2651,-0.0320,1.0146,-16.168,4.377,-0.804,-13.63,-1.77,0.2905,-0.6235,-0.7980,6.525,36.574,-8.154,-74.46,-91.99,-0.35,-37.38,-37.04
9240,1299.05,1301.47,1391.72,0.1436,0.0486,1.1877,0.975,4.110,3.355,-5.32,2.41,0.2356,-0.0569,0.9780,-22.855,9.873,8.310,-13.39,-2.35,0.3640,-0.6593,-0.7418,1.563,42.406,-10.322,-72.34,-92.88,-0.32,-36.34,-36.03
9255,1184.62,1236.19,1328.06,0.1089,0.0442,1.1909,0.608,1.133,1.218,-5.31,2.42,0.2014,-0.0278,0.9912,-15.115,5.476,7.318,-13.28,-2.55,0.3287,-0.6429,-0.5884,6.128,37.184,-14.566,-70.78,-93.58,-0.28,-35.27,-34.98
9280,1805.93,1786.59,1707.62,0.0632,0.0427,1.2437,1.463,-0.257,0.577,-5.26,2.44,0.2708,0.0371,0.9136,-8.702,-0.417,7.135,-13.35,-2.67,0.3513,-0.6986,-0.5704,-8.452,1.734,-17.681,-69.75,-94.50,-0.26,-34.20,-33.94
9294,1740.66,1643.15,1655.24,0.1240,0.0676,1.1843,-0.247,0.782,1.355,-5.27,2.46,0.4924,0.2441,0.7695,1.603,-13.821,-0.468,-13.91,-2.24,0.4260,-0.6960,-0.7644,-8.055,-6.678,-27.864,-68.90,-95.48,-0.28,-33.14,-32.87
9319,1221.69,1311.14,1336.92,0.2473,0.0608,1.1250,2.715,2.263,6.210,-5.35,2.54,0.1624,-0.0288,0.9617,36.244,-11.424,-7.796,-14.10,-1.35,0.3738,-0.6349,-0.8274,-7.154,5.688,-37.253,-67.77,-96.59,-0.30,-32.08,-31.78
9334,1392.53,1491.65,1473.11,0.1943,-0.0081,1.1116,1.387,-0.684,1.767,-5.46,2.50,0.1831,-0.0693,0.9873,66.473,-22.753,-16.636,-14.36,-0.44,0.4170,-0.6443,-0.8442,-6.666,11.871,-39.162,-66.68,-97.61,-0.33,-31.00,-30.67
9359,1448.94,1423.96,1472.31,0.0791,0.0303,1.2065,0.654,-0.119,-0.355,-5.42,2.49,0.2424,-0.0178,0.9856,1.191,-0.386,0.967,-14.36,-0.42,0.3951,-0.5789,-0.9104,-0.666,34.207,-42.184,-64.91,-98.63,-0.36,-29.88,-29.52
9373,1278.90,1266.01,1353.85,0.0625,0.0271,1.1990,-0.262,1.179,3.279,-5.36,2.46,0.2456,0.0073,0.9858,-0.473,0.469,0.005,-14.34,-0.41,0.4058,-0.5750,-0.9069,2.525,50.207,-40.047,-63.31,-99.57,-0.40,-28.73,-28.33
9398,1700.37,1720.51,1623.81,0.0654,0.0193,1.2068,2.379,-0.776,3.981,-5.33,2.49,0.2498,-0.0088,0.9893,0.351,-0.020,1.822,-14.34,-0.41,0.3964,-0.6328,-0.7372,3.227,63.154,-38.917,-60.95,-100.29,-0.43,-27.50,-27.07
9413,1816.41,1778.53,1706.81,0.0906,0.0588,1.1877,0.410,-1.203,1.523,-5.33,2.50,0.2429,0.0090,1.0044,1.527,-1.409,2.280,-14.34,-0.37,0.3779,-0.6497,-0.6621,5.853,55.704,-36.459,-59.37,-100.91,-0.46,-26.24,-25.78
9438,1195.09,1254.73,1319.19,0.0659,0.0491,1.1968,0.883,-0.363,3.401,-5.30,2.52,0.2759,-0.0544,0.9844,-0.565,0.881,0.310,-14.35,-0.44,0.3669,-0.5753,-0.6627,9.685,50.711,-41.100,-57.40,-101.44,-0.49,-24.94,-24.45
9452,1230.55,1330.48,1357.07,0.0774,0.0505,1.1941,0.547,-1.173,1.141,-5.28,2.53,0.2629,-0.0535,0.9861,0.718,0.011,1.547,-14.36,-0.48,0.4011,-0.6139,-0.6947,5.563,50.406,-46.429,-56.00,-102.10,-0.52,-23.63,-23.10
9477,1690.70,1595.60,1611.72,0.0854,0.0408,1.1997,0.211,-1.005,-2.065,-5.28,2.52,0.2778,-0.0315,0.9980,0.824,-0.188,2.585,-14.39,-0.49,0.5417,-0.4987,-0.8765,2.098,77.352,-47.910,-53.57,-103.01,-0.55,-22.24,-21.68
9492,1423.96,1398.17,1457.00,0.0920,0.0354,1.1917,0.227,-0.791,-3.133,-5.27,2.51,0.2473,-0.0537,0.9929,1.298,0.194,7.272,-14.38,-0.52,0.5288,-0.5427,-0.7440,0.067,91.032,-42.291,-51.79,-103.83,-0.58,-20.82,-20.24
9517,1495.68,1564.98,1516.63,0.0984,0.0339,1.1938,0.440,0.400,-1.515,-5.25,2.50,0.2810,-0.0908,0.9907,3.878,-1.058,18.051,-14.43,-0.52,0.5525,-0.5665,-0.5890,7.441,82.864,-52.398,-49.42,-104.29,-0.61,-19.34,-18.73
9531,1753.55,1746.30,1665.71,0.0925,0.0349,1.1948,0.502,0.003,0.928,-5.24,2.49,0.2490,-0.0278,0.9900,2.397,0.423,11.684,-14.42,-0.51,0.6099,-0.5509,-0.5579,3.441,75.902,-53.620,-48.11,-104.87,-0.64,-17.88,-17.23
9556,1237.00,1259.56,1336.92,0.0864,0.0413,1.1987,0.547,-0.134,1.065,-5.22,2.49,0.2490,-0.0046,0.9888,0.916,0.209,2.402,-14.41,-0.48,0.5514,-0.5198,-0.5083,1.060,54.589,-55.543,-46.56,-105.43,-0.67,-16.40,-15.73
9571,1186.23,1274.07,1328.86,0.0884,0.0374,1.1973,0.532,-0.150,0.974,-5.20,2.49,0.2527,-0.0261,0.9841,0.718,-0.081,3.349,-14.41,-0.49,0.6693,-0.5096,-0.6954,-0.925,55.917,-66.291,-45.59,-106.21,-0.70,-14.97,-14.27
9595,1813.19,1741.47,1689.08,0.0935,0.0427,1.2021,0.456,1.408,0.851,-5.15,2.49,0.2380,-0.0039,0.9951,0.076,-0.615,0.142,-14.40,-0.48,0.8091,-0.5129,-0.7604,-5.856,93.765,-76.612,-43.24,-107.15,-0.73,-13.47,-12.74
9610,1585.93,1523.88,1560.15,0.0891,0.0405,1.1917,0.608,2.858,0.500,-5.09,2.49,0.2578,-0.0061,0.9915,-0.412,-0.020,0.402,-14.41,-0.49,0.7465,-0.4792,-0.6149,1.685,93.780,-67.421,-41.90,-107.82,-0.76,-11.99,-11.23
9635,1302.27,1390.92,1392.53,0.0881,0.0405,1.2002,0.578,2.461,0.531,-5.01,2.49,0.2202,0.0574,1.0024,1.298,0.056,3.684,-14.37,-0.38,0.6714,-0.3798,-0.5586,1.441,92.543,-54.780,-39.72,-108.55,-0.79,-10.46,-9.67
9649,1564.18,1619.78,1548.06,0.0659,-0.0398,1.1846,0.883,6.308,-0.874,-4.89,2.42,0.1992,0.0945,1.0046,1.359,0.453,10.204,-14.29,-0.25,0.5992,-0.3451,-0.4984,10.052,98.391,-59.955,-38.40,-109.14,-0.83,-8.96,-8.14
9674,1349.82,1328.06,1398.17,0.0583,0.0872,1.1816,-0.949,3.148,-6.782,-4.77,2.43,0.2764,-0.0596,0.9258,4.321,2.621,21.135,-14.28,-0.21,0.7218,-0.4094,-0.4333,10.128,87.291,-40.688,-36.52,-109.44,-0.86,-7.44,-6.58
9689,1224.91,1259.56,1324.03,0.0686,0.0120,1.2007,0.410,3.224,-2.797,-4.69,2.40,0.2395,0.0100,1.0562,4.611,-0.753,23.455,-14.26,-0.13,0.8188,-0.3850,-0.4110,21.334,77.215,-39.635,-35.79,-109.68,-0.90,-5.98,-5.08
9714,1802.71,1771.28,1705.20,0.1042,0.0623,1.1938,0.960,4.247,-5.164,-4.60,2.43,0.2847,-0.0481,0.9973,3.954,-0.570,21.868,-14.30,-0.09,0.8573,-0.3640,-0.4636,19.334,87.139,-52.978,-34.07,-109.86,-0.95,-4.51,-3.57
9728,1777.73,1716.48,1675.38,-0.0149,-0.0859,1.2158,-2.247,7.988,-8.462,-4.38,2.27,0.2317,-0.0442,1.0149,4.931,1.064,23.318,-14.26,-0.06,0.8364,-0.3583,-0.3937,15.731,86.131,-44.123,-33.31,-110.19,-1.00,-3.11,-2.10
9753,1224.91,1320.81,1345.79,0.1238,0.0410,1.1931,1.387,7.942,-7.530,-4.21,2.30,0.2456,0.1208,0.9602,3.695,-2.615,10.417,-14.32,0.17,0.8486,-0.3857,-0.3229,20.327,70.467,-38.734,-32.13,-110.09,-1.07,-1.73,-0.66
9767,1392.53,1478.75,1457.80,0.0864,0.0176,1.1729,0.105,9.682,-5.713,-4.08,2.27,0.2310,0.1060,0.9636,3.908,0.331,19.608,-14.30,0.35,1.0090,-0.4264,-0.3048,13.411,61.780,-43.223,-31.85,-110.21,-1.14,-0.44,0.70
9792,1473.11,1443.30,1493.26,0.0591,0.1108,1.1709,0.395,10.217,-2.004,-3.80,2.34,0.2939,-0.0625,1.1240,5.542,-1.272,21.623,-14.34,0.41,0.8577,-0.3485,-0.3079,10.311,51.948,-34.093,-31.18,-110.38,-1.23,0.79,2.02
9807,1362.71,1296.63,1358.68,0.0149,0.0745,1.2100,-0.445,6.492,-11.759,-3.65,2.36,0.2568,-0.0205,1.0005,4.947,-1.241,19.639,-14.36,0.45,0.9148,-0.3655,-0.3015,4.357,48.299,-28.719,-31.12,-110.70,-1.32,1.93,3.25
9832,1691.50,1714.87,1637.51,0.0654,0.0303,1.2070,0.578,3.789,-2.080,-3.55,2.36,0.2407,-0.0068,0.9626,0.565,-0.157,6.142,-14.35,0.45,0.9525,-0.3843,-0.3101,6.388,46.314,-32.444,-30.62,-110.91,-1.42,3.01,4.43
9846,1843.00,1781.76,1707.62,0.0535,0.0427,1.1819,0.517,-1.035,0.485,-3.54,2.36,0.3130,-0.0664,0.9700,-3.878,3.507,-6.926,-14.37,0.31,0.9524,-0.3586,-0.3230,7.777,43.520,-37.497,-30.65,-111.22,-1.51,4.02,5.52
9871,1199.12,1270.84,1324.84,0.0156,0.0461,1.1895,1.326,1.789,6.928,-3.44,2.39,0.2834,-0.1689,1.0276,0.137,-3.913,-3.476,-14.49,0.12,0.9141,-0.3500,-0.2841,6.708,42.223,-37.894,-30.29,-111.42,-1.60,4.97,6.58
9886,1237.00,1353.85,1359.49,0.0911,0.0229,1.2092,1.433,0.843,10.332,-3.45,2.38,0.2737,-0.0007,0.9731,2.244,-2.768,8.768,-14.55,0.15,0.9299,-0.3292,-0.2858,5.869,42.528,-36.123,-30.37,-111.73,-1.70,5.85,7.55
9910,1701.98,1600.44,1611.72,0.0376,0.0359,1.1821,0.410,1.224,4.622,-3.39,2.38,0.2090,0.0469,1.0005,4.076,-1.195,18.326,-14.52,0.30,0.9474,-0.3079,-0.3202,5.426,42.146,-32.352,-30.04,-112.08,-1.79,6.69,8.48
9925,1444.10,1396.56,1446.52,0.1096,0.0237,1.1885,1.021,-0.577,0.714,-3.43,2.37,0.2500,0.0212,0.9875,6.779,-0.005,33.730,-14.52,0.41,0.9736,-0.3015,-0.3378,6.922,50.421,-30.536,-30.02,-112.51,-1.87,7.48,9.35
9950,1501.32,1575.46,1522.27,0.0144,0.0759,1.1978,2.868,0.644,4.287,-3.36,2.46,0.3254,-0.0254,1.0466,12.473,-3.730,49.959,-14.66,0.68,0.9106,-0.2765,-0.2319,4.403,57.994,-25.711,-29.38,-112.75,-1.96,8.25,10.21
9964,1752.75,1743.88,1660.88,0.0444,0.0466,1.1877,4.288,0.904,0.745,-3.32,2.52,0.1997,0.0127,1.0415,11.237,0.041,50.524,-14.59,0.84,0.9205,-0.3077,-0.1364,6.342,52.528,-26.536,-29.43,-112.68,-2.04,8.96,11.00
9989,1262.78,1269.23,1335.31,0.0964,0.0693,1.2000,2.929,-0.134,-4.187,-3.35,2.61,0.2766,-0.0554,0.9871,7.557,-0.081,33.074,-14.61,0.94,0.9160,-0.2783,-0.1823,8.327,40.009,-28.841,-29.27,-112.69,-2.12,9.63,11.75
10004,1190.26,1256.34,1313.55,0.0957,-0.0391,1.2212,-0.644,3.301,6.241,-3.33,2.51,0.2795,-0.0398,0.9741,4.656,0.698,26.173,-14.63,0.94,0.9240,-0.3044,-0.2289,2.021,42.375,-31.207,-29.43,-112.94,-2.19,10.24,12.44
10029,1793.04,1739.85,1705.20,-0.0212,0.0723,1.1516,12.563,5.759,0.180,-3.10,2.84,0.2617,-0.0779,0.9934,1.801,-0.554,8.463,-14.64,0.88,0.9955,-0.2914,-0.2042,5.869,52.436,-36.230,-28.98,-113.04,-2.28,10.83,13.11
10043,1631.87,1549.67,1582.71,0.0554,0.1248,1.1704,7.479,2.873,-11.744,-3.05,3.01,0.2429,-0.0037,0.9844,1.878,-0.173,8.234,-14.63,0.88,0.9763,-0.2666,-0.1499,5.289,52.513,-37.345,-29.10,-113.09,-2.36,11.36,13.72
10068,1288.57,1392.53,1401.39,0.0522,0.0840,1.2021,15.219,-2.409,0.317,-3.10,3.40,0.1833,0.2456,1.0205,2.763,0.331,14.341,-14.53,1.20,0.9895,-0.2354,-0.1348,5.441,47.612,-35.345,-28.85,-113.10,-2.42,11.88,14.30
10083,1560.95,1610.92,1545.64,0.0974,-0.0459,1.2405,-2.109,6.339,6.088,-3.03,3.26,0.1282,0.1597,1.0298,-10.916,1.156,-52.224,-14.36,1.20,0.9760,-0.1846,-0.1582,6.434,49.276,-33.559,-29.09,-113.35,-2.48,12.34,14.82
10107,1328.86,1302.27,1402.20,-0.0708,0.0786,1.1465,9.509,13.392,-2.767,-2.58,3.50,0.3726,-0.2925,0.9519,1.114,-0.493,4.204,-14.49,0.86,0.9742,-0.2083,-0.0411,15.426,40.803,-36.261,-29.07,-112.74,-2.57,12.74,15.30
10122,1199.12,1237.00,1320.81,-0.0173,0.0513,1.1133,10.975,-0.486,-26.614,-2.52,3.64,0.3940,-0.1472,1.0393,0.656,-1.745,-1.461,-14.64,0.69,1.0315,-0.2472,0.0271,-5.582,42.162,-22.917,-29.42,-112.24,-2.67,13.08,15.74
10147,1818.02,1780.95,1705.20,0.0781,0.0747,1.2048,-12.979,7.972,9.386,-2.35,3.32,0.3997,-0.1470,0.9746,-1.389,-0.921,-7.491,-14.81,0.47,0.9985,-0.1917,-0.0717,-7.322,29.688,-32.719,-29.68,-112.38,-2.78,13.36,16.14
10161,1787.40,1699.56,1687.47,0.1189,0.0422,1.3003,7.570,-10.913,-1.347,-2.56,3.40,0.2654,-0.0210,0.9905,-2.763,0.194,-15.109,-14.81,0.40,0.9630,-0.1351,-0.1359,-3.551,28.360,-33.620,-30.25,-112.89,-2.88,13.60,16.48
10186,1189.45,1271.65,1324.84,0.0396,0.0369,1.2209,5.753,1.560,-8.324,-2.51,3.51,0.2351,-0.0046,1.0017,-3.038,-0.081,-17.980,-14.78,0.31,0.9719,-0.1147,-0.0688,4.769,33.200,-20.948,-30.48,-112.93,-2.96,13.81,16.77
10201,1365.13,1448.13,1420.73,0.0312,0.0579,1.1917,5.402,3.789,2.073,-2.43,3.57,0.3469,-0.2559,0.9907,-2.992,0.514,-11.018,-14.85,-0.03,0.9640,-0.1099,-0.0460,3.502,39.398,-19.971,-30.97,-112.88,-3.06,13.96,17.01
10226,1560.95,1508.57,1523.88,0.0552,0.0742,1.1919,3.555,-3.692,-1.500,-2.53,3.66,0.3237,-0.0046,0.9719,3.237,-1.409,13.181,-14.96,0.05,1.0225,-0.1494,0.0035,7.624,35.902,-20.459,-31.11,-112.21,-3.14,14.10,17.24
10240,1412.67,1392.53,1428.79,0.0637,0.0730,1.2070,-1.911,4.492,2.271,-2.47,3.63,0.2844,0.0010,0.9814,11.710,-0.493,57.562,-14.99,0.22,1.0797,-0.1742,0.0067,3.472,34.497,-21.559,-31.61,-111.67,-3.23,14.19,17.41
10265,1514.21,1576.26,1545.64,0.0525,0.0845,1.1877,33.295,-2.150,-2.935,-2.53,4.44,0.2190,0.0642,0.9985,10.046,-0.050,48.952,-14.94,0.53,1.0388,-0.1471,0.0370,-0.406,31.734,-18.444,-31.84,-110.96,-3.30,14.26,17.56
10280,1631.87,1649.60,1639.93,0.0671,0.1292,1.1487,14.013,4.476,0.042,-2.48,4.69,0.1638,-0.0640,1.0173,5.099,-2.188,20.356,-14.85,0.52,0.9397,-0.1423,0.0521,-2.330,25.581,-16.490,-32.45,-110.17,-3.37,14.27,17.64
10305,1349.01,1355.46,1401.39,0.0249,0.0718,1.1792,-4.964,-7.127,-1.149,-2.63,4.54,0.1646,-0.0984,1.0134,2.092,-0.508,9.913,-14.75,0.45,1.0222,-0.1858,-0.0098,12.876,10.757,-18.261,-33.13,-109.52,-3.41,14.25,17.67
10319,1323.22,1362.71,1359.49,0.0776,0.0977,1.1917,-15.025,-6.226,7.264,-2.74,4.33,0.2400,-0.0259,0.9988,-1.206,-0.463,-8.361,-14.74,0.39,1.0409,-0.0916,-0.0714,6.434,19.047,-33.192,-33.87,-109.80,-3.44,14.19,17.63
10344,1637.51,1626.23,1637.51,0.0530,0.0415,1.2407,-5.361,1.881,1.630,-2.69,4.15,0.2603,-0.0181,0.9924,-2.733,0.438,-12.575,-14.72,0.30,1.0160,-0.0909,-0.0125,2.128,37.078,-16.078,-33.99,-109.50,-3.47,14.12,17.60
10359,1533.55,1494.87,1520.66,0.0603,0.0691,1.2097,20.761,-0.073,-1.362,-2.69,4.43,0.3457,0.1316,0.9734,1.359,0.377,7.654,-14.81,0.47,1.0450,-0.0936,-0.0067,-10.177,45.612,-10.490,-34.35,-109.34,-3.51,14.03,17.54
10383,1379.63,1456.19,1419.12,0.0583,0.1069,1.1731,6.013,3.056,-2.065,-2.62,4.59,0.2029,0.0237,0.9805,14.076,-0.966,65.257,-14.77,0.83,0.9852,-0.1290,0.0758,-6.238,47.368,-5.833,-34.14,-108.50,-3.54,13.96,17.50
10398,1537.58,1640.73,1574.65,0.0413,0.0854,1.1753,-7.346,0.660,2.119,-2.60,4.48,0.0264,-0.3943,1.0674,15.069,-0.722,65.104,-14.51,0.62,0.9486,-0.1241,0.0946,-0.085,43.078,-15.253,-34.46,-107.38,-3.56,13.87,17.43
10423,1404.62,1377.22,1419.93,0.0769,0.0881,1.2136,-14.659,-5.631,3.813,-2.75,4.11,0.2114,-0.1182,0.9993,5.832,-0.829,24.723,-14.48,0.61,0.9497,-0.0972,0.1448,3.105,33.887,-21.986,-34.53,-105.84,-3.56,13.79,17.35
10437,1324.03,1320.00,1328.06,0.0586,0.0596,1.2256,-10.460,3.591,-0.263,-2.70,3.94,0.2549,-0.0134,0.9902,0.748,0.179,1.059,-14.48,0.60,0.9774,-0.0829,0.1038,-0.116,30.910,-19.726,-35.04,-104.49,-3.57,13.67,17.24
10462,1707.62,1761.61,1765.64,0.0732,0.0950,1.2000,21.204,-0.119,-0.233,-2.72,4.46,0.2522,-0.0110,0.9924,0.947,0.637,-0.010,-14.46,0.60,1.0486,-0.0774,0.0928,-5.185,34.650,-18.047,-35.17,-103.33,-3.57,13.56,17.13
10477,1661.69,1659.27,1718.10,0.0430,0.1072,1.1570,11.570,3.392,-1.240,-2.66,4.64,0.2556,0.0830,0.9949,0.733,0.621,-0.224,-14.45,0.69,1.0563,-0.0590,0.0895,7.792,32.788,-14.246,-35.68,-101.82,-3.57,13.41,16.99
10502,1291.79,1336.12,1307.91,0.0400,0.0815,1.1807,-4.002,-3.249,0.912,-2.73,4.53,0.2571,-0.0317,0.9888,1.237,0.637,3.226,-14.43,0.67,1.0503,-0.0746,0.1804,3.014,31.246,-18.551,-35.80,-100.16,-3.57,13.27,16.85
10516,1379.63,1441.69,1372.38,0.0671,0.0950,1.2009,-10.537,-5.676,3.615,-2.82,4.38,0.3132,0.0906,0.9780,3.282,-0.020,11.455,-14.50,0.81,1.0189,-0.0988,0.1617,13.411,26.497,-27.360,-36.30,-98.59,-3.57,13.11,16.69
10541,1494.07,1472.31,1528.72,0.0474,0.0525,1.2214,-3.850,1.484,-0.034,-2.77,4.25,0.2437,-0.0579,0.9985,2.214,0.148,8.219,-14.48,0.78,1.0049,-0.0724,0.1665,11.609,22.314,-25.421,-36.62,-96.80,-3.57,12.94,16.51
10555,1370.77,1333.70,1353.85,0.0630,0.0833,1.2124,14.929,-0.669,1.325,-2.78,4.46,0.2476,-0.0410,0.9866,2.046,0.224,7.486,-14.47,0.75,1.0000,-0.0476,0.1263,0.663,22.329,-19.940,-37.22,-95.27,-3.57,12.74,16.31
10580,1620.59,1687.47,1648.79,0.0508,0.0989,1.1816,3.341,4.782,1.157,-2.66,4.54,0.2468,-0.0571,0.9897,3.603,-0.050,12.677,-14.46,0.75,1.0333,-0.0115,0.0604,9.334,36.604,-19.788,-37.32,-93.36,-3.58,12.54,16.11
10595,1675.38,1689.89,1709.23,0.0388,0.0894,1.1775,-0.842,-0.852,-0.004,-2.66,4.53,0.2524,-0.0061,0.9895,0.855,-0.325,0.234,-14.46,0.74,1.0161,-0.0188,0.1376,14.388,48.681,-26.658,-37.52,-91.44,-3.58,12.33,15.92
10620,1307.91,1340.95,1328.06,0.0676,0.0933,1.2046,-11.346,-2.608,2.500,-2.73,4.25,0.2478,-0.0349,0.9944,2.840,-0.737,6.036,-14.47,0.76,1.0066,-0.0153,0.2274,9.289,45.490,-15.665,-37.21,-89.46,-3.58,12.17,15.76
10634,1355.46,1419.93,1397.36,0.0488,0.0632,1.2185,-7.697,0.293,0.790,-2.72,4.11,0.2744,-0.0430,0.9983,2.000,-1.608,2.051,-14.51,0.72,1.0117,-0.0454,0.2960,-4.666,46.100,-13.268,-37.27,-87.91,-3.59,12.02,15.60
10659,1541.61,1522.27,1553.70,0.0615,0.0830,1.1914,16.013,-0.791,-0.630,-2.74,4.50,0.2512,-0.0137,0.9971,-0.137,1.064,-0.346,-14.48,0.69,0.9644,-0.0132,0.2550,12.678,38.543,-26.795,-37.10,-85.91,-3.59,11.88,15.47
10674,1441.69,1417.51,1461.03,0.0510,0.1042,1.1724,8.105,3.072,-0.049,-2.69,4.63,0.2463,-0.0168,0.9988,0.336,0.026,-0.331,-14.47,0.66,1.0204,0.0117,0.1995,-0.513,38.788,-19.391,-37.37,-84.13,-3.59,11.74,15.33
10699,1507.77,1571.43,1530.33,0.0376,0.0886,1.1814,-2.430,-2.165,1.905,-2.73,4.56,0.2515,-0.0100,0.9958,7.786,0.927,38.142,-14.44,0.82,0.9268,0.0198,0.2654,7.792,37.963,-17.284,-37.18,-82.17,-3.59,11.62,15.21
10713,1602.86,1660.88,1623.81,0.0652,0.0974,1.1924,-7.941,-3.844,3.019,-2.79,4.45,0.2500,-0.0259,0.9949,4.092,1.095,20.875,-14.41,0.84,0.9442,0.0219,0.2888,10.159,40.024,-21.833,-37.33,-80.30,-3.58,11.50,15.09
10738,1371.58,1373.19,1359.49,0.0542,0.0625,1.2205,-2.353,0.156,1.645,-2.78,4.36,0.2961,0.0127,1.0225,-12.718,0.255,22.692,-14.44,0.52,0.9612,0.0261,0.3174,6.174,35.566,-21.039,-37.15,-78.45,-3.58,11.41,14.99
10753,1354.65,1394.95,1391.72,0.0583,0.0784,1.1995,11.066,-1.081,-0.339,-2.80,4.51,0.3826,0.0054,1.0076,-28.504,2.942,16.127,-14.53,0.11,0.9995,0.0203,0.3718,7.365,28.391,-24.658,-37.39,-76.71,-3.58,11.30,14.88
10777,1598.83,1584.32,1609.30,0.0530,0.0945,1.1785,3.631,1.743,-0.462,-2.75,4.60,0.2102,-0.0859,0.9858,-62.199,-3.043,16.585,-14.55,-1.51,0.9596,0.0406,0.3593,4.189,16.940,-16.459,-37.62,-74.94,-3.59,11.19,14.77
10792,1488.42,1475.53,1503.74,0.0481,0.0935,1.1848,-2.338,-0.211,2.790,-2.74,4.56,0.2280,-0.1616,1.0122,-70.657,-0.753,7.669,-14.52,-2.67,0.9529,0.0504,0.3352,1.762,17.001,-20.704,-38.03,-73.25,-3.59,11.05,14.64
