timestamp_ms,EMG_Quad_mV,EMG_Ham_mV,EMG_Calf_mV,ACC_Quad_X_g,ACC_Quad_Y_g,ACC_Quad_Z_g,GYR_Quad_X_dps,GYR_Quad_Y_dps,GYR_Quad_Z_dps,Pitch_Quad_deg,Roll_Quad_deg,ACC_Ham_X_g,ACC_Ham_Y_g,ACC_Ham_Z_g,GYR_Ham_X_dps,GYR_Ham_Y_dps,GYR_Ham_Z_dps,Pitch_Ham_deg,Roll_Ham_deg,ACC_Calf_X_g,ACC_Calf_Y_g,ACC_Calf_Z_g,GYR_Calf_X_dps,GYR_Calf_Y_dps,GYR_Calf_Z_dps,Pitch_Calf_deg,Roll_Calf_deg,Angle_Quad_Ham_deg,Angle_Quad_Calf_deg,Angle_Ham_Calf_deg
4,1178.97,915.46,814.73,0.1641,0.1013,1.1831,0.038,-0.640,0.211,-7.75,4.92,0.2336,-0.6287,0.7776,0.179,-0.103,-0.152,-13.06,-38.32,0.9534,-0.0366,0.3322,-6.365,-17.668,21.667,-68.69,15.05,-0.01,-2.19,-2.18
20,953.33,685.79,552.82,0.1602,0.0977,1.1824,-0.283,0.567,-0.171,-7.74,4.92,0.2280,-0.6028,0.7749,0.500,0.111,-0.091,-13.06,-38.30,0.9623,-0.0540,0.2181,-7.724,-19.180,10.156,-69.15,14.35,-0.02,-4.26,-4.24
34,838.10,685.79,492.38,0.1650,0.1052,1.1873,0.939,0.460,0.027,-7.73,4.93,0.2288,-0.6106,0.7739,-1.057,0.065,0.352,-13.06,-38.31,0.9385,-0.0380,0.1122,-4.899,-11.592,-2.837,-69.59,13.62,-0.04,-6.22,-6.18
59,2276.56,2382.93,2623.08,0.1663,0.0986,1.1921,-0.069,-0.288,0.149,-7.75,4.93,0.2273,-0.6116,0.7769,1.080,0.035,-0.335,-13.06,-38.29,0.9542,0.0194,0.1016,-1.220,14.225,-15.371,-69.52,13.54,-0.04,-8.03,-7.99
74,1859.12,1757.58,1870.40,0.1582,0.1091,1.1799,-0.206,-0.075,-0.156,-7.74,4.93,0.2314,-0.6113,0.7810,-0.309,0.157,0.046,-13.06,-38.29,0.9686,0.0640,0.2169,1.910,24.011,-21.203,-69.33,13.62,-0.05,-9.71,-9.66
99,1042.78,1188.64,1090.33,0.1638,0.0984,1.1799,0.542,-0.426,0.134,-7.76,4.94,0.2275,-0.6089,0.7693,-0.065,-0.011,0.031,-13.06,-38.29,0.9596,0.1356,0.4128,0.292,17.080,-22.990,-68.84,13.72,-0.06,-11.23,-11.17
113,1620.59,1930.04,1989.67,0.1643,0.1079,1.1765,-1.367,-0.182,-0.538,-7.76,4.93,0.2280,-0.6111,0.7776,0.408,-0.148,-0.091,-13.06,-38.28,1.0006,0.1906,0.4353,-2.548,2.958,-18.501,-68.71,13.88,-0.07,-12.64,-12.57
138,1196.70,950.11,846.15,0.1597,0.0989,1.1836,0.847,0.948,0.104,-7.74,4.94,0.2256,-0.6150,0.7705,-0.630,0.218,0.413,-13.05,-38.30,0.9878,0.2839,0.3199,-5.082,-12.554,-4.959,-68.98,14.31,-0.07,-13.97,-13.89
152,887.25,636.63,461.76,0.1611,0.0977,1.1904,-0.115,0.108,-0.003,-7.73,4.94,0.2271,-0.6113,0.7700,0.836,-0.026,-0.259,-13.05,-38.29,1.0104,0.2913,0.2205,-4.838,-13.165,10.385,-69.19,15.02,-0.08,-15.22,-15.13
177,2241.10,2526.37,2823.74,0.1624,0.1040,1.1821,-0.176,-0.609,-0.018,-7.75,4.93,0.2258,-0.6152,0.7742,-0.691,-0.057,0.184,-13.05,-38.31,0.9889,0.1902,0.2040,-2.762,-1.882,28.522,-69.33,15.51,-0.09,-16.39,-16.30
192,2166.15,2191.14,2385.35,0.1616,0.0991,1.1829,1.000,-0.502,0.165,-7.76,4.95,0.2314,-0.6177,0.7727,0.317,-0.026,-0.122,-13.05,-38.32,0.9669,0.0814,0.2568,-0.899,1.782,30.522,-69.41,15.54,-0.09,-17.48,-17.39
216,859.05,871.14,684.18,0.1594,0.1057,1.1877,-0.619,0.185,-0.339,-7.75,4.93,0.2278,-0.6086,0.7791,-0.050,-0.057,0.229,-13.05,-38.31,0.9518,-0.0531,0.3356,-3.876,-5.378,18.858,-69.56,14.95,-0.10,-18.51,-18.41
231,1237.00,1485.20,1458.61,0.1604,0.1052,1.1799,0.527,0.689,-0.095,-7.74,4.94,0.2302,-0.6133,0.7761,-0.767,0.035,0.336,-13.05,-38.32,0.9486,-0.0782,0.2982,-5.525,-9.378,4.629,-69.74,14.28,-0.10,-19.48,-19.38
256,1461.03,1268.42,1254.73,0.1616,0.0986,1.1890,0.206,-0.121,-0.018,-7.74,4.95,0.2290,-0.6062,0.7798,0.271,0.020,-0.183,-13.05,-38.31,0.9536,-0.0070,0.1638,-4.121,-7.012,-14.440,-70.12,13.85,-0.11,-20.41,-20.30
270,1027.47,748.64,621.32,0.1614,0.1040,1.1826,-0.970,-0.884,-0.125,-7.75,4.93,0.2300,-0.6116,0.7705,-0.477,-0.026,0.046,-13.05,-38.32,0.9673,0.0620,0.1260,-3.861,4.622,-20.455,-70.29,14.04,-0.11,-21.28,-21.17
295,1993.70,2330.55,2512.67,0.1636,0.1013,1.1750,1.091,-0.334,0.394,-7.77,4.96,0.2310,-0.6082,0.7791,0.500,0.020,-0.091,-13.05,-38.30,0.9775,0.1459,0.2233,1.773,20.744,-20.791,-69.87,14.46,-0.11,-22.07,-21.96
310,2274.95,2457.88,2750.40,0.1621,0.1057,1.1738,-0.512,0.139,-0.324,-7.77,4.96,0.2310,-0.6143,0.7761,-0.599,0.050,0.275,-13.06,-38.31,0.9832,0.1846,0.3400,1.208,20.179,-16.241,-69.56,14.76,-0.11,-22.77,-22.66
334,812.31,680.95,488.35,0.1589,0.1023,1.1860,0.511,0.689,-0.125,-7.75,4.97,0.2261,-0.6104,0.7708,0.683,-0.011,-0.137,-13.05,-38.29,0.9951,0.2163,0.4263,-3.037,1.309,-5.371,-69.42,14.93,-0.12,-23.42,-23.30
349,967.03,1142.71,944.47,0.1597,0.1018,1.1851,0.359,0.673,-0.141,-7.73,4.97,0.2236,-0.6106,0.7747,0.103,-0.011,-0.030,-13.05,-38.29,1.2639,0.9111,0.7090,-39.739,24.668,-45.157,-68.63,15.11,-0.12,-23.97,-23.85
374,1821.25,1705.20,1805.13,0.1580,0.1040,1.1877,-0.313,-0.380,-0.080,-7.74,4.97,0.2200,-0.6174,0.7725,-0.416,0.020,0.062,-13.04,-38.31,0.8976,0.6914,0.4991,-19.846,-69.714,129.072,-69.88,15.41,-0.12,-24.57,-24.45
388,1287.77,1061.32,1004.10,0.1638,0.1040,1.1802,0.374,-0.655,0.195,-7.75,4.97,0.2249,-0.6140,0.7703,0.546,-0.148,-0.244,-13.04,-38.30,0.9160,-0.3075,0.1593,-1.311,-48.752,147.636,-70.57,13.83,-0.13,-25.17,-25.05
413,1598.83,1906.67,1963.08,0.1628,0.1016,1.1848,-0.603,-0.258,-0.232,-7.76,4.96,0.2324,-0.6138,0.7761,-0.279,0.035,-0.106,-13.04,-38.31,0.8711,-0.7007,-0.0687,-6.716,-14.493,19.133,-70.53,11.48,-0.13,-25.73,-25.60
428,2181.47,2490.92,2702.05,0.1636,0.1008,1.1853,0.252,-0.014,-0.064,-7.76,4.96,0.2312,-0.6121,0.7742,0.393,-0.042,-0.122,-13.04,-38.31,0.9348,-0.2052,-0.0848,18.933,18.637,-13.020,-70.39,9.27,-0.13,-26.24,-26.11
452,885.64,658.39,461.76,0.1594,0.1016,1.1873,0.343,0.826,-0.141,-7.74,4.96,0.2300,-0.6125,0.7725,-0.340,-0.042,0.214,-13.05,-38.32,0.8682,0.0322,0.4098,19.879,39.431,-30.226,-69.32,9.66,-0.13,-26.64,-26.51
467,816.34,754.29,604.40,0.1584,0.1025,1.1931,-0.038,0.124,-0.141,-7.73,4.96,0.2268,-0.6086,0.7734,0.149,0.004,-0.045,-13.04,-38.31,0.9130,0.1151,0.4553,4.002,0.026,-7.936,-69.18,9.80,-0.13,-27.00,-26.87
482,1083.08,1237.00,1134.65,0.1641,0.1045,1.1897,-0.344,-0.456,-0.095,-7.74,4.96,0.2327,-0.6052,0.7756,0.485,-0.072,-0.122,-13.05,-38.30,0.9338,0.0724,0.3309,-19.159,-21.623,15.407,-69.51,9.58,-0.14,-27.36,-27.23
506,1675.38,1516.63,1586.74,0.1648,0.1018,1.1812,0.206,-0.426,-0.003,-7.75,4.96,0.2314,-0.6145,0.7654,-1.179,0.065,0.275,-13.05,-38.34,1.0089,-0.4286,0.0531,-3.479,-5.134,-21.615,-69.58,7.65,-0.14,-27.70,-27.56
521,1169.30,912.23,808.28,0.1604,0.0994,1.1777,-0.084,-0.166,-0.064,-7.76,4.96,0.2295,-0.6182,0.7683,0.424,-0.011,-0.198,-13.05,-38.34,0.8195,-0.3651,0.0054,10.215,18.179,-74.150,-69.25,5.86,-0.14,-27.99,-27.85
546,1782.56,2101.69,2210.48,0.1614,0.1038,1.1868,0.191,0.796,0.043,-7.74,4.96,0.2268,-0.6084,0.7710,-0.004,0.004,0.077,-13.05,-38.34,0.9908,0.2802,0.2637,-11.159,54.958,-106.867,-67.91,6.40,-0.14,-28.17,-28.03
560,2250.77,2514.29,2811.65,0.1670,0.0999,1.1904,-0.054,0.689,0.012,-7.73,4.96,0.2253,-0.6145,0.7783,-0.294,-0.103,0.214,-13.05,-38.34,1.0206,0.7413,0.4867,-13.937,52.179,-68.516,-66.79,7.21,-0.14,-28.26,-28.12
585,866.30,645.49,451.28,0.1633,0.1045,1.1838,0.374,-0.258,0.195,-7.74,4.97,0.2249,-0.6079,0.7808,-0.279,-0.103,0.062,-13.05,-38.34,1.0092,0.3329,0.6002,9.269,-12.554,26.598,-66.88,7.87,-0.14,-28.35,-28.20
600,873.55,855.82,678.53,0.1628,0.1028,1.1853,-0.206,-0.792,0.165,-7.75,4.97,0.2314,-0.6121,0.7747,-0.156,0.050,-0.106,-13.05,-38.34,1.0187,0.1768,0.4208,-10.456,-15.623,11.499,-67.08,8.02,-0.15,-28.44,-28.30
625,2052.53,2052.53,2197.58,0.1636,0.1006,1.1855,0.099,-0.090,-0.171,-7.75,4.97,0.2261,-0.6116,0.7712,0.500,0.020,-0.167,-13.05,-38.33,0.9806,0.1396,0.2012,1.711,-36.997,28.965,-68.15,8.60,-0.15,-28.60,-28.46
639,1457.00,1277.29,1257.95,0.1641,0.0996,1.1814,-0.069,0.582,-0.125,-7.75,4.96,0.2253,-0.6113,0.7708,-0.431,0.126,0.138,-13.04,-38.34,0.9652,0.0795,0.1075,-14.731,-13.897,24.736,-68.63,8.95,-0.15,-28.79,-28.64
664,1387.69,1625.42,1641.54,0.1609,0.1003,1.1892,0.221,0.505,-0.034,-7.73,4.97,0.2305,-0.6106,0.7659,0.210,0.020,-0.183,-13.05,-38.34,0.9675,-0.0323,0.1240,7.345,3.706,14.995,-68.82,8.65,-0.15,-28.98,-28.83
678,2003.37,2332.16,2500.59,0.1636,0.1030,1.1897,-0.267,0.047,-0.202,-7.74,4.96,0.2283,-0.6118,0.7666,-0.141,-0.026,-0.015,-13.05,-38.34,0.9760,-0.0679,0.2290,-2.121,18.576,2.949,-68.70,8.12,-0.15,-29.14,-28.99
703,968.64,700.29,546.37,0.1638,0.0996,1.1804,0.252,-0.594,0.180,-7.75,4.97,0.2297,-0.6135,0.7688,0.210,-0.057,-0.030,-13.05,-38.34,1.0210,-0.0707,0.2952,-4.304,5.675,-16.455,-68.66,7.58,-0.15,-29.29,-29.14
718,801.03,660.00,468.21,0.1626,0.1047,1.1831,-0.359,-0.151,-0.034,-7.76,4.96,0.2297,-0.6099,0.7761,0.439,0.081,-0.152,-13.05,-38.33,0.9122,0.0244,0.3293,-0.563,3.156,-32.425,-68.64,7.51,-0.15,-29.43,-29.28
732,936.41,996.04,874.36,0.1616,0.1025,1.1843,0.328,0.414,-0.003,-7.75,4.97,0.2297,-0.6099,0.7751,-0.141,0.004,0.168,-13.05,-38.33,1.0094,0.1255,0.2544,-2.869,-4.096,-27.936,-68.81,7.84,-0.15,-29.57,-29.42
757,1873.63,1801.10,1905.86,0.1606,0.1033,1.1843,-0.267,0.643,-0.141,-7.73,4.96,0.2278,-0.6104,0.7766,0.271,0.065,0.046,-13.05,-38.32,0.9775,0.2738,0.2295,-4.853,7.217,-15.951,-68.66,8.57,-0.15,-29.69,-29.54
772,1312.75,1043.59,977.51,0.1592,0.1011,1.1917,-0.115,0.292,-0.095,-7.73,4.96,0.2261,-0.6125,0.7715,0.073,0.096,0.092,-13.04,-38.33,1.0186,0.2914,0.2396,2.490,8.347,-4.944,-68.56,9.45,-0.15,-29.79,-29.64
786,915.46,655.16,438.39,0.1592,0.1038,1.1912,0.252,-0.090,0.027,-7.72,4.96,0.2300,-0.6130,0.7703,-0.294,0.096,0.153,-13.05,-38.33,1.0181,0.2716,0.3290,-1.373,11.339,7.377,-68.37,10.03,-0.16,-29.88,-29.73
811,2189.52,2536.85,2926.08,0.1604,0.0996,1.1821,-0.054,-0.090,0.073,-7.73,4.96,0.2297,-0.6111,0.7783,0.256,0.310,-0.045,-13.04,-38.32,1.0328,0.1462,0.3955,-1.632,-6.126,20.843,-68.51,10.19,-0.16,-29.97,-29.81
825,2287.03,2336.19,2668.21,0.1624,0.1025,1.1860,0.053,0.215,0.088,-7.72,4.96,0.2302,-0.6167,0.7742,-0.156,0.111,0.199,-13.04,-38.33,0.9225,0.1027,0.3983,-6.243,-14.157,21.682,-68.66,10.19,-0.16,-30.06,-29.91
850,813.11,730.92,458.53,0.1609,0.1011,1.1821,-0.099,0.750,-0.125,-7.71,4.95,0.2310,-0.6130,0.7786,0.744,0.340,0.016,-13.03,-38.31,0.9889,0.0358,0.1843,-12.762,-18.371,19.270,-69.32,9.90,-0.16,-30.20,-30.04
865,1104.03,1294.21,1199.12,0.1599,0.1023,1.1873,-0.115,0.780,-0.217,-7.69,4.95,0.2278,-0.6111,0.7793,0.302,0.233,0.291,-13.03,-38.30,0.9344,0.0133,0.1163,-4.289,-9.500,12.369,-69.73,9.77,-0.16,-30.35,-30.19
908,2217.73,2294.29,2645.64,0.1609,0.0989,1.1804,-0.573,-0.273,-0.064,-7.71,4.92,0.2271,-0.6116,0.7786,0.714,0.050,-0.244,-13.02,-38.27,0.9349,-0.0115,0.2738,0.017,14.408,-9.799,-69.19,9.52,-0.16,-30.46,-30.29
923,1661.69,1482.78,1512.60,0.1580,0.1003,1.1858,-0.115,0.231,0.043,-7.70,4.92,0.2275,-0.6082,0.7803,-0.187,0.035,0.092,-13.02,-38.26,0.9873,0.0146,0.3329,0.002,14.133,-20.150,-69.03,9.38,-0.16,-30.54,-30.38
948,1194.29,1423.15,1394.95,0.1609,0.0984,1.1863,-0.130,0.811,-0.217,-7.68,4.91,0.2258,-0.6143,0.7703,0.042,0.126,-0.167,-13.01,-38.27,1.0061,0.1455,0.3306,-3.769,-1.882,-21.402,-69.10,9.58,-0.17,-30.63,-30.47
962,1837.36,2210.48,2507.03,0.1628,0.1042,1.1890,-0.222,0.170,-0.095,-7.68,4.91,0.2292,-0.6101,0.7798,-0.004,-0.072,-0.076,-13.02,-38.26,0.9791,0.2164,0.2760,-7.617,-1.943,-17.753,-69.15,10.04,-0.17,-30.72,-30.55
987,1035.53,732.53,442.42,0.1641,0.0967,1.1814,0.236,-0.487,0.211,-7.69,4.91,0.2290,-0.6152,0.7769,0.134,-0.026,-0.061,-13.02,-38.26,1.0199,0.2749,0.2296,-0.289,0.698,0.461,-69.16,10.84,-0.17,-30.79,-30.63
1002,813.92,606.81,252.23,0.1621,0.0977,1.1765,0.191,-0.579,0.012,-7.71,4.91,0.2319,-0.6091,0.7793,0.454,-0.011,-0.091,-13.02,-38.25,0.9874,0.2505,0.2747,-4.792,5.416,12.659,-69.09,11.40,-0.17,-30.86,-30.69
1016,876.78,863.08,634.21,0.1619,0.1042,1.1794,-0.435,-0.014,-0.217,-7.71,4.91,0.2341,-0.6116,0.7754,-0.187,-0.042,0.046,-13.03,-38.25,0.9797,0.1815,0.3289,-2.151,0.866,22.568,-69.08,11.72,-0.17,-30.92,-30.75
1041,2038.02,2031.58,2256.41,0.1643,0.0964,1.1909,0.465,0.414,0.073,-7.70,4.92,0.2300,-0.6118,0.7734,0.302,-0.011,-0.045,-13.03,-38.25,0.9446,0.0699,0.3721,-3.815,-8.172,20.415,-69.26,11.60,-0.17,-30.99,-30.82
1056,1439.27,1207.18,1136.26,0.1611,0.1021,1.1865,-0.374,0.124,-0.110,-7.70,4.91,0.2300,-0.6069,0.7698,0.363,-0.026,-0.091,-13.03,-38.24,0.9792,0.0126,0.2948,-6.670,-15.928,18.705,-69.56,11.33,-0.17,-31.08,-30.91
1080,1431.21,1706.01,1798.68,0.1624,0.1033,1.1777,0.282,-0.075,0.195,-7.70,4.92,0.2273,-0.6111,0.7783,-0.004,-0.011,0.000,-13.03,-38.24,0.9457,0.0034,0.1730,-3.128,-10.096,2.949,-70.01,11.05,-0.17,-31.19,-31.02
1095,2083.15,2450.62,2864.03,0.1648,0.0991,1.1833,0.450,0.047,0.149,-7.71,4.92,0.2273,-0.6099,0.7827,0.256,0.035,-0.030,-13.03,-38.23,0.9789,0.0138,0.1237,-1.785,-0.890,-3.432,-70.28,10.93,-0.17,-31.31,-31.14
1120,938.83,665.64,361.83,0.1621,0.1055,1.1858,-0.313,0.200,-0.110,-7.70,4.92,0.2310,-0.6113,0.7761,-0.416,-0.011,0.214,-13.03,-38.24,0.9520,0.0446,0.2145,-0.579,14.637,-11.432,-70.06,10.93,-0.17,-31.41,-31.24
1134,809.89,689.01,377.14,0.1592,0.1008,1.1853,0.527,0.337,-0.049,-7.70,4.92,0.2275,-0.6099,0.7783,-0.050,0.035,-0.030,-13.03,-38.24,0.9833,0.0660,0.2969,2.475,16.851,-18.287,-69.87,11.00,-0.18,-31.49,-31.32
1159,2230.62,2350.70,2729.45,0.1616,0.1021,1.1860,-0.313,-0.197,-0.156,-7.70,4.92,0.2280,-0.6162,0.7778,-0.217,0.065,-0.015,-13.03,-38.25,0.9766,0.1533,0.3748,-2.212,3.400,-16.196,-69.74,11.17,-0.18,-31.56,-31.38
1173,1740.66,1606.08,1668.94,0.1565,0.1023,1.1853,-0.054,-0.243,-0.171,-7.70,4.92,0.2266,-0.6084,0.7744,-0.034,-0.011,0.016,-13.03,-38.25,0.9990,0.1956,0.3427,-5.724,-1.958,-12.944,-69.74,11.46,-0.18,-31.62,-31.44
1198,1129.82,1316.78,1230.55,0.1570,0.1023,1.1812,0.282,0.170,-0.125,-7.69,4.92,0.2256,-0.6089,0.7795,0.286,0.020,0.031,-13.02,-38.23,1.0037,0.2499,0.2563,-3.159,-7.409,2.217,-69.94,12.04,-0.18,-31.69,-31.51
1213,1761.61,2101.69,2310.40,0.1621,0.1021,1.1899,-0.420,-0.014,-0.339,-7.69,4.92,0.2324,-0.6116,0.7710,-0.447,-0.042,0.153,-13.03,-38.24,0.9883,0.2295,0.2415,-5.434,-3.119,13.560,-70.01,12.59,-0.18,-31.76,-31.58
1237,1282.12,1272.45,1378.02,0.1621,0.1003,1.1860,0.435,-0.059,0.088,-7.70,4.93,0.2285,-0.6140,0.7742,0.378,-0.042,-0.061,-13.03,-38.24,1.1709,0.4498,0.4114,30.337,-138.386,-2.470,-73.21,14.03,-0.18,-32.05,-31.87
1252,1155.60,1158.83,1262.78,0.1616,0.1008,1.1819,0.435,0.032,-0.018,-7.70,4.93,0.2290,-0.6130,0.7737,-0.034,0.126,-0.091,-13.03,-38.24,1.0566,0.1006,0.0951,-8.060,-33.271,10.797,-73.87,14.56,-0.18,-32.36,-32.18
1277,1861.54,1832.53,1735.82,0.1582,0.1052,1.1819,0.572,0.093,0.104,-7.69,4.95,0.2288,-0.6074,0.7764,0.302,0.157,-0.137,-13.02,-38.23,1.0548,0.1395,0.0684,6.826,-103.317,12.522,-76.53,15.71,-0.18,-32.84,-32.66
1291,1744.69,1663.30,1637.51,0.1616,0.1057,1.1831,0.725,0.337,0.058,-7.69,4.96,0.2263,-0.6101,0.7791,-0.279,0.203,0.031,-13.02,-38.23,1.0183,0.1217,0.2322,34.582,-77.546,5.178,-77.61,16.44,-0.18,-33.36,-33.18
1316,1195.09,1307.91,1329.67,0.1584,0.1021,1.1924,0.007,0.078,-0.125,-7.68,4.96,0.2312,-0.6140,0.7778,0.149,-0.011,0.000,-13.02,-38.23,0.9514,0.0929,0.2855,18.139,-87.714,6.369,-79.64,16.92,-0.18,-33.99,-33.81
1330,1456.19,1558.53,1494.87,0.1636,0.1008,1.1848,0.618,0.170,0.073,-7.68,4.97,0.2300,-0.6116,0.7742,-0.065,-0.026,-0.030,-13.02,-38.23,0.9244,0.1826,0.0973,2.185,-112.416,10.461,-81.19,17.85,-0.18,-34.68,-34.50
1355,1394.14,1328.06,1425.57,0.1609,0.0986,1.1853,0.221,-0.075,0.073,-7.69,4.97,0.2339,-0.6099,0.7751,-0.004,0.050,-0.122,-13.03,-38.23,1.0413,0.1201,0.1008,-4.701,-93.363,16.094,-83.46,18.38,-0.18,-35.48,-35.30
1370,1203.15,1199.12,1295.02,0.1602,0.1023,1.1816,0.160,-0.319,-0.080,-7.69,4.97,0.2261,-0.6111,0.7808,0.286,-0.042,-0.183,-13.03,-38.22,1.0321,0.1110,0.1075,-11.525,-103.958,13.346,-84.90,18.76,-0.18,-36.33,-36.15
1394,1818.02,1827.69,1702.78,0.1602,0.1013,1.1877,0.939,0.093,0.180,-7.69,4.99,0.2283,-0.6150,0.7744,-0.279,-0.042,0.046,-13.03,-38.23,1.0471,0.1331,0.0258,-13.861,-113.256,28.766,-87.61,19.63,-0.18,-37.31,-37.12
1409,1847.03,1775.31,1714.87,0.1633,0.1006,1.1868,-0.099,-0.136,0.180,-7.69,4.99,0.2288,-0.6084,0.7769,-0.095,0.004,-0.015,-13.03,-38.23,1.0365,0.1401,-0.0696,-12.808,-109.394,39.621,-89.03,21.39,-0.19,-38.32,-38.13
1434,1162.86,1235.38,1302.27,0.1646,0.1016,1.1860,0.740,0.017,0.012,-7.70,5.00,0.2310,-0.6111,0.7720,-0.156,-0.072,0.123,-13.03,-38.24,0.9723,0.1487,-0.1675,-15.602,-109.760,62.140,-91.46,23.35,-0.19,-39.42,-39.24
1448,1311.14,1409.45,1415.90,0.1606,0.0991,1.1804,0.374,0.047,0.088,-7.70,5.00,0.2305,-0.6104,0.7734,0.103,0.020,0.031,-13.03,-38.24,0.9386,0.1724,-0.2373,-0.166,-107.134,62.583,-92.61,25.76,-0.19,-40.53,-40.35
1473,1556.12,1479.56,1523.08,0.1611,0.1033,1.1838,0.206,0.337,0.058,-7.69,5.01,0.2354,-0.6121,0.7729,-0.156,0.020,0.031,-13.04,-38.24,0.9241,0.0565,-0.1082,-15.418,-112.172,64.980,-95.13,27.92,-0.19,-41.74,-41.55
1488,1302.27,1287.77,1371.58,0.1584,0.1038,1.1829,0.511,0.429,0.104,-7.68,5.02,0.2239,-0.6169,0.7766,-0.355,-0.026,0.107,-13.03,-38.25,0.9397,0.0780,-0.2385,-0.655,-111.699,60.797,-96.32,30.59,-0.19,-42.95,-42.76
1512,1627.84,1707.62,1583.52,0.1587,0.1116,1.1826,0.496,0.032,0.134,-7.68,5.04,0.2251,-0.6113,0.7659,0.637,0.264,-0.610,-13.03,-38.25,0.9736,-0.0526,-0.1622,1.162,-115.042,67.392,-98.80,26.76,-0.19,-44.25,-44.06
1527,1849.45,1818.83,1694.73,0.1550,0.1196,1.2017,2.801,0.429,1.615,-7.66,5.09,0.2358,-0.6289,0.7703,5.492,3.760,-3.847,-12.98,-38.19,0.9559,-0.0927,-0.1864,8.841,-115.042,56.446,-100.01,23.28,-0.19,-45.54,-45.35
1552,1155.60,1204.76,1325.64,0.1589,0.1326,1.1931,-6.802,-5.403,1.844,-7.79,4.95,0.0986,-0.6348,0.8291,-0.141,1.928,-3.816,-12.78,-38.18,0.9019,-0.0344,-0.3192,-12.747,-115.424,63.056,-102.23,19.03,-0.17,-46.89,-46.72
1566,1187.03,1302.27,1353.85,0.0852,0.0981,1.1680,-5.351,-2.746,5.585,-7.76,4.87,0.2390,-0.7498,0.9744,3.492,5.210,-1.221,-12.67,-38.11,1.1304,-0.1184,-0.4286,-10.258,-108.874,71.560,-103.11,15.21,-0.14,-48.21,-48.07
1591,1746.30,1680.22,1641.54,0.2146,0.0769,1.1855,-1.458,3.513,-7.912,-7.72,4.81,0.3870,-0.5229,0.7756,-4.981,-1.278,-0.412,-12.90,-38.15,0.8978,-0.1436,-0.3512,-33.296,-142.752,75.178,-105.87,10.94,-0.13,-49.63,-49.50
1606,1463.44,1423.15,1504.54,0.2456,0.0889,1.1707,5.000,1.895,-5.072,-7.78,4.87,0.3721,-0.6062,0.8110,2.424,-6.194,6.489,-13.13,-38.09,0.9233,-0.1825,-0.3374,-17.205,-139.989,60.491,-107.09,7.44,-0.14,-51.03,-50.90
1631,1422.34,1534.36,1461.83,0.1548,0.1169,1.1875,-1.275,2.261,-0.293,-7.72,4.86,0.2134,-0.5745,0.7559,7.889,-10.255,10.672,-13.37,-37.88,0.7952,-0.2402,-0.4047,13.711,-172.310,47.988,-110.34,4.64,-0.16,-52.57,-52.41
1645,1722.12,1740.66,1584.32,0.1562,0.0974,1.1899,1.107,2.032,0.272,-7.68,4.87,0.1799,-0.5435,0.7131,1.004,-8.225,15.146,-13.45,-37.86,0.9849,-0.3735,-0.6992,34.948,-151.516,28.461,-111.31,2.01,-0.19,-54.07,-53.88
1670,1270.84,1274.07,1414.29,0.1467,0.0959,1.1943,-2.344,-2.014,-0.095,-7.72,4.81,0.2097,-0.5945,0.7380,3.202,-10.576,8.245,-13.69,-37.80,0.6320,-0.0123,-0.6792,29.223,-126.187,46.247,-113.03,-0.90,-0.24,-55.58,-55.34
1685,1177.36,1237.00,1368.35,0.1548,0.0964,1.1758,2.221,-2.701,0.287,-7.75,4.83,0.2390,-0.6069,0.7329,-2.447,-7.446,8.153,-13.80,-37.87,0.7463,-0.0726,-0.8279,15.192,-112.813,59.804,-113.22,-4.16,-0.29,-57.00,-56.71
1709,1843.81,1788.21,1620.59,0.1665,0.0938,1.1753,1.290,0.887,0.241,-7.74,4.86,0.2354,-0.6155,0.7312,0.973,-5.278,4.489,-13.93,-37.89,0.9113,-0.3400,-0.7969,15.345,-93.394,40.049,-114.16,-6.84,-0.34,-58.39,-58.05
1724,1704.40,1626.23,1592.38,0.1609,0.1033,1.1785,1.015,1.147,-0.080,-7.72,4.88,0.2410,-0.6328,0.7332,-2.126,-5.202,3.436,-14.01,-37.98,0.8525,-0.3241,-0.7388,7.925,-84.218,24.705,-114.01,-9.72,-0.40,-59.66,-59.27
1749,1260.37,1350.62,1370.77,0.1599,0.0999,1.2002,-0.084,1.879,-0.018,-7.67,4.87,0.2322,-0.6255,0.7561,4.042,0.325,-1.129,-13.99,-37.91,0.7496,-0.2329,-0.7300,4.429,-55.821,16.049,-113.98,-12.66,-0.45,-60.86,-60.41
1763,1482.78,1565.79,1468.28,0.1597,0.0947,1.1890,0.740,-1.052,0.333,-7.68,4.88,0.2312,-0.6047,0.7915,8.057,0.768,-2.076,-13.96,-37.79,0.6924,-0.1711,-0.7653,9.528,-51.409,16.659,-113.26,-15.62,-0.50,-61.91,-61.41
1788,1407.03,1387.69,1483.59,0.1609,0.1033,1.1860,-1.565,-1.815,-0.370,-7.73,4.84,0.2222,-0.6084,0.7776,-2.966,-0.866,0.993,-13.95,-37.86,0.6243,-0.1116,-0.7799,10.826,-55.302,31.957,-113.11,-18.48,-0.54,-62.88,-62.34
1803,1229.74,1264.40,1425.57,0.1665,0.0884,1.1736,2.679,-1.174,0.684,-7.75,4.87,0.2317,-0.6064,0.7720,0.622,-0.011,-0.519,-13.94,-37.86,0.6375,-0.1925,-0.6837,3.421,-52.981,44.797,-112.44,-21.35,-0.57,-63.73,-63.16
1828,1775.31,1750.33,1572.23,0.1619,0.0981,1.1868,0.496,1.391,-0.110,-7.72,4.88,0.2295,-0.6111,0.7764,0.332,0.157,-0.244,-13.92,-37.86,0.6410,-0.2488,-0.6400,3.940,-55.363,50.079,-112.41,-24.00,-0.61,-64.53,-63.92
1842,1818.02,1754.36,1635.09,0.1558,0.0986,1.1802,0.572,1.681,0.058,-7.69,4.88,0.2280,-0.6057,0.7842,0.637,0.081,-0.213,-13.90,-37.85,0.6469,-0.3324,-0.5764,4.002,-70.355,49.499,-112.04,-26.46,-0.64,-65.24,-64.60
1867,1178.97,1286.96,1372.38,0.1599,0.0935,1.1968,-0.374,-0.350,0.134,-7.70,4.87,0.2261,-0.6157,0.7795,-1.729,-0.072,0.749,-13.88,-37.90,0.6523,-0.3533,-0.6293,1.162,-78.004,35.056,-112.55,-28.92,-0.67,-65.94,-65.27
1882,1278.10,1390.11,1392.53,0.1577,0.1030,1.1882,-0.099,-1.693,0.043,-7.72,4.87,0.2302,-0.6125,0.7712,1.523,0.096,-0.534,-13.86,-37.89,0.6255,-0.3368,-0.6865,-10.258,-102.355,36.018,-112.54,-31.56,-0.69,-66.59,-65.89
1907,1587.55,1523.08,1568.21,0.1619,0.0930,1.1782,-0.863,-0.930,-0.064,-7.74,4.84,0.2297,-0.6033,0.7776,-1.256,0.111,0.260,-13.84,-37.92,0.4945,-0.3668,-0.5756,13.147,-177.607,11.224,-115.33,-33.56,-0.71,-67.38,-66.67
1921,1340.15,1353.85,1498.10,0.1594,0.0969,1.1824,0.985,0.078,0.088,-7.74,4.85,0.2222,-0.6172,0.7705,-2.508,-0.179,0.901,-13.82,-37.97,0.5045,-0.2578,-0.9702,9.177,-160.859,6.400,-115.84,-36.06,-0.73,-68.16,-67.43
1946,1560.15,1609.30,1454.58,0.1677,0.0981,1.1877,0.481,1.849,-0.125,-7.70,4.86,0.2302,-0.6130,0.7776,1.905,-0.179,-0.351,-13.81,-37.93,0.4065,-0.2719,-1.2357,-4.334,-116.035,26.614,-116.72,-38.80,-0.74,-68.95,-68.20
1961,1799.49,1766.45,1552.89,0.1589,0.0935,1.1938,0.435,0.582,-0.003,-7.69,4.86,0.2336,-0.6123,0.7778,-0.676,0.096,0.397,-13.80,-37.94,0.3423,-0.2994,-1.1500,-3.739,-82.798,32.049,-115.89,-41.39,-0.76,-69.62,-68.86
1985,1207.18,1273.26,1427.18,0.1606,0.0979,1.1914,-0.023,-1.052,0.119,-7.71,4.85,0.2302,-0.6106,0.7708,-0.065,-0.042,0.031,-13.79,-37.95,0.4382,-0.3325,-1.0735,-4.044,-51.745,29.835,-115.25,-43.91,-0.77,-70.20,-69.43
2000,1192.67,1302.27,1378.02,0.1650,0.0945,1.1731,0.725,-1.159,0.149,-7.73,4.86,0.2261,-0.6079,0.7815,0.088,-0.103,0.275,-13.77,-37.95,0.4354,-0.3785,-0.9819,3.223,-37.470,22.491,-113.93,-46.17,-0.78,-70.65,-69.86
2025,1768.06,1678.61,1589.16,0.1602,0.1001,1.1782,-0.557,0.719,-0.354,-7.72,4.85,0.2253,-0.6096,0.7729,1.111,0.065,-0.198,-13.75,-37.93,0.5027,-0.3896,-0.9418,42.002,-37.821,-5.570,-113.10,-47.37,-0.79,-71.00,-70.21
2039,1508.57,1481.98,1548.86,0.1602,0.1016,1.1838,0.603,1.116,-0.110,-7.70,4.86,0.2319,-0.6060,0.7803,-0.294,-0.179,0.092,-13.75,-37.93,0.3732,-0.3274,-0.9717,5.513,-18.340,-4.623,-111.50,-49.57,-0.80,-71.22,-70.43
2064,1405.42,1482.78,1399.78,0.1587,0.0947,1.1965,0.465,-0.044,0.226,-7.70,4.86,0.2261,-0.6145,0.7776,-0.599,0.035,0.077,-13.73,-37.95,0.3160,-0.3049,-0.8604,-4.105,0.408,7.041,-109.64,-51.89,-0.80,-71.30,-70.50
2079,1666.52,1689.89,1503.74,0.1616,0.0981,1.1841,0.038,-0.548,-0.018,-7.71,4.86,0.2295,-0.6094,0.7764,1.660,0.096,-0.305,-13.71,-37.93,0.3600,-0.2971,-0.8500,8.994,-18.019,4.583,-108.14,-53.94,-0.81,-71.27,-70.46
2103,1276.48,1316.78,1451.36,0.1628,0.0950,1.1775,0.099,-0.655,0.012,-7.72,4.86,0.2251,-0.6130,0.7725,-1.317,-0.057,0.871,-13.70,-37.98,0.3789,-0.3628,-0.9364,-12.976,-0.584,13.942,-106.41,-56.35,-0.81,-71.11,-70.30
2118,1185.42,1270.84,1409.45,0.1580,0.1011,1.1785,-0.084,0.261,-0.247,-7.72,4.86,0.2263,-0.6123,0.7732,-0.584,-0.103,0.016,-13.68,-37.99,0.4572,-0.4312,-0.9789,-18.121,7.492,3.911,-104.63,-58.61,-0.81,-70.84,-70.03
2143,1832.53,1764.03,1601.25,0.1631,0.0967,1.1848,-0.069,1.192,0.043,-7.69,4.85,0.2295,-0.6033,0.7803,-0.111,-0.393,-0.213,-13.68,-37.99,0.5027,-0.4722,-1.0455,-23.082,31.171,-9.570,-102.26,-61.11,-0.81,-70.43,-69.62
2158,1710.84,1631.87,1610.92,0.1577,0.0994,1.1917,0.359,0.231,-0.080,-7.68,4.85,0.2273,-0.6106,0.7695,-0.340,-0.057,-0.183,-13.67,-38.00,0.4585,-0.4014,-1.1144,-33.571,56.118,-19.906,-99.82,-63.58,-0.81,-69.88,-69.06
2182,1237.00,1355.46,1392.53,0.1611,0.0986,1.1853,0.160,-1.006,-0.003,-7.71,4.86,0.2258,-0.6101,0.7766,-0.034,0.050,-0.152,-13.65,-38.01,0.4131,-0.3197,-1.2709,-49.846,109.889,-33.554,-95.50,-66.84,-0.81,-69.05,-68.24
2197,1462.64,1546.45,1425.57,0.1626,0.0962,1.1760,0.527,-1.082,0.226,-7.73,4.86,0.2261,-0.6108,0.7788,-0.111,0.142,-0.152,-13.63,-38.01,0.4634,-0.2422,-1.3577,-47.434,153.248,-39.524,-91.78,-69.57,-0.81,-68.03,-67.22
2222,1398.17,1403.81,1478.75,0.1619,0.0957,1.1787,-0.802,0.246,-0.278,-7.72,4.84,0.2297,-0.6089,0.7766,0.546,-0.057,-0.671,-13.62,-38.00,0.3188,-0.2659,-0.9835,-18.594,222.942,-40.623,-84.88,-71.93,-0.81,-66.59,-65.79
2236,1237.00,1276.48,1428.79,0.1604,0.1003,1.1804,0.084,1.177,0.027,-7.71,4.84,0.2268,-0.6089,0.7720,-0.538,-0.057,0.000,-13.61,-38.01,0.3861,-0.3160,-0.7402,-6.945,220.484,-43.829,-80.56,-73.73,-0.80,-64.96,-64.16
2261,1790.62,1784.18,1575.46,0.1611,0.0969,1.1882,-0.466,0.139,-0.141,-7.70,4.82,0.2288,-0.6116,0.7720,0.775,-0.118,-0.488,-13.60,-38.00,0.6318,-0.3860,-0.7074,-16.075,226.286,-40.058,-74.22,-75.67,-0.80,-62.99,-62.19
2275,1805.13,1726.96,1623.00,0.1584,0.1040,1.1868,-0.283,-0.808,-0.034,-7.71,4.82,0.2271,-0.6106,0.7810,0.424,-0.026,-0.473,-13.59,-37.99,0.6758,-0.3708,-0.7363,-41.663,228.301,-56.226,-70.27,-77.82,-0.80,-60.89,-60.09
2300,1186.23,1250.70,1353.85,0.1624,0.0972,1.1804,0.252,-1.052,0.165,-7.74,4.83,0.2322,-0.6135,0.7715,-0.401,0.081,-0.290,-13.58,-38.01,0.6724,-0.2838,-0.6711,-46.395,250.118,-90.257,-63.64,-80.53,-0.79,-58.47,-57.68
2315,1320.00,1404.62,1404.62,0.1631,0.0994,1.1802,-0.527,-0.502,-0.202,-7.75,4.82,0.2302,-0.6123,0.7756,0.592,0.081,-0.381,-13.57,-38.01,0.3813,-0.5375,-0.7546,14.979,237.660,-117.875,-59.43,-81.60,-0.78,-55.92,-55.13
2340,1537.58,1495.68,1535.16,0.1614,0.0957,1.1846,0.099,0.994,-0.049,-7.72,4.82,0.2275,-0.6130,0.7720,0.317,0.187,0.031,-13.56,-38.01,0.8306,-0.0648,-0.5302,21.986,190.530,-99.631,-54.75,-82.89,-0.78,-53.22,-52.44
2354,1331.28,1328.06,1457.00,0.1650,0.0918,1.1882,0.175,1.254,0.027,-7.71,4.81,0.2275,-0.6104,0.7729,0.805,0.325,-0.335,-13.54,-38.01,0.8546,-0.1219,-0.4509,-22.090,184.316,-25.127,-52.26,-84.85,-0.77,-50.54,-49.77
2379,1611.72,1689.08,1546.45,0.1599,0.0996,1.1921,-0.527,-0.365,-0.125,-7.72,4.80,0.2295,-0.6116,0.7742,-1.027,-0.118,0.642,-13.53,-38.04,0.7656,-0.1578,-0.1866,-16.670,174.393,-50.577,-48.41,-86.35,-0.76,-47.78,-47.01
2394,1828.50,1804.32,1663.30,0.1609,0.0972,1.1853,0.404,-0.808,0.470,-7.73,4.80,0.2285,-0.6111,0.7664,0.225,-0.225,0.031,-13.53,-38.05,0.7627,-0.1304,-0.0250,-23.037,155.965,-80.593,-46.83,-86.97,-0.76,-45.09,-44.34
2418,1184.62,1229.74,1353.85,0.1638,0.1003,1.1775,-0.420,-0.151,-0.202,-7.73,4.79,0.2300,-0.6055,0.7830,-0.019,-0.072,0.138,-13.52,-38.04,0.9448,-0.0620,-0.1361,-14.915,113.248,-105.570,-44.76,-88.70,-0.75,-42.46,-41.71
2433,1190.26,1299.85,1349.82,0.1609,0.0942,1.1785,-0.084,0.460,-0.003,-7.73,4.79,0.2246,-0.6121,0.7705,-0.966,0.020,0.229,-13.51,-38.06,0.7930,0.1700,-0.3606,-28.945,126.347,-108.470,-43.33,-84.24,-0.74,-39.90,-39.16
2458,1988.86,2050.11,2320.88,0.1606,0.0994,1.1831,-0.191,0.826,-0.217,-7.71,4.78,0.2285,-0.6135,0.7764,0.393,0.020,-0.167,-13.50,-38.06,1.9261,0.9785,-0.2206,-14.350,74.087,39.636,-41.91,-80.85,-0.73,-37.43,-36.70
2472,1448.13,1220.88,1091.94,0.1621,0.0974,1.1892,-0.084,0.322,-0.232,-7.70,4.78,0.2246,-0.6113,0.7744,0.317,-0.072,-0.015,-13.49,-38.06,0.7318,0.7167,-0.1545,46.108,40.469,139.438,-41.40,-76.54,-0.73,-35.09,-34.37
2497,1403.00,1712.45,1791.43,0.1626,0.0999,1.1816,-0.420,-1.037,0.134,-7.73,4.77,0.2207,-0.6125,0.7725,-0.156,0.035,0.138,-13.47,-38.07,0.3461,0.0043,0.6324,43.711,35.355,117.148,-40.28,-73.93,-0.72,-32.84,-32.12
2512,1674.58,1822.05,1818.83,0.1611,0.0959,1.1841,-0.451,-0.701,-0.080,-7.74,4.76,0.2236,-0.6147,0.7747,-0.156,-0.118,0.046,-13.45,-38.08,1.5636,-2.0000,-1.0986,131.788,0.210,-12.715,-40.16,-72.95,-0.71,-30.74,-30.03
2537,1098.39,792.16,534.29,0.1575,0.1006,1.1787,0.572,0.719,-0.232,-7.72,4.78,0.2322,-0.6064,0.7737,0.210,0.142,-0.183,-13.45,-38.07,0.9292,-1.1606,-0.4058,56.734,104.561,-175.219,-37.54,-72.29,-0.70,-28.60,-27.90
2551,1059.71,1008.94,941.25,0.1589,0.0940,1.1887,0.236,1.040,0.043,-7.70,4.78,0.2307,-0.6101,0.7783,0.042,0.096,-0.076,-13.44,-38.07,0.9346,0.2542,-0.0627,-24.670,149.721,-104.379,-36.15,-69.12,-0.69,-26.52,-25.82
2576,1954.21,2016.26,2112.97,0.1621,0.1011,1.1821,0.236,0.246,-0.186,-7.70,4.78,0.2280,-0.6152,0.7742,-0.477,-0.148,0.413,-13.43,-38.09,0.6654,0.0477,0.4141,-93.296,101.248,-87.844,-34.12,-69.88,-0.68,-24.43,-23.75
2591,1820.44,1843.81,2024.32,0.1636,0.0977,1.1870,0.557,-0.258,-0.125,-7.70,4.79,0.2300,-0.6140,0.7810,0.897,-0.057,-0.213,-13.43,-38.08,1.0852,0.3076,0.1519,-5.159,79.385,-131.035,-33.75,-67.28,-0.68,-22.47,-21.80
2615,1146.74,1166.08,1044.40,0.1628,0.1013,1.1797,-0.359,-0.701,-0.095,-7.72,4.78,0.2278,-0.6108,0.7810,-0.538,0.142,0.092,-13.41,-38.09,1.1049,0.0975,0.1946,69.055,41.752,-138.379,-33.64,-63.73,-0.67,-20.64,-19.97
2630,1388.50,1443.30,1237.00,0.1660,0.0947,1.1741,0.007,0.399,-0.080,-7.72,4.78,0.2231,-0.6123,0.7759,-0.309,0.096,0.062,-13.40,-38.10,1.0447,0.3948,-0.1123,12.734,53.813,-101.463,-33.58,-60.16,-0.66,-18.93,-18.27
2655,1431.21,1394.95,1516.63,0.1609,0.0991,1.1804,0.359,0.582,-0.018,-7.71,4.79,0.2332,-0.6069,0.7766,0.210,-0.026,-0.122,-13.40,-38.09,0.9995,0.3547,0.2126,21.116,56.469,-60.364,-32.88,-57.26,-0.65,-17.29,-16.64
2669,1170.92,1100.00,1106.45,0.1655,0.0996,1.1838,-0.328,-0.044,-0.156,-7.72,4.79,0.2263,-0.6079,0.7771,-0.019,0.020,-0.305,-13.39,-38.09,0.9504,0.2321,0.1774,9.895,44.530,-54.211,-33.05,-54.92,-0.64,-15.78,-15.14
2694,1878.46,1984.03,1978.39,0.1624,0.0986,1.1848,0.908,-0.502,0.119,-7.73,4.81,0.2307,-0.6074,0.7739,-0.477,0.065,0.123,-13.38,-38.11,0.9027,0.2374,0.0596,-17.113,55.171,-64.577,-32.54,-52.72,-0.63,-14.34,-13.71
2708,1974.36,2044.47,2190.33,0.1641,0.0962,1.1760,-0.206,-0.411,0.058,-7.74,4.80,0.2415,-0.6033,0.7683,-0.187,-0.240,1.039,-13.40,-38.11,0.9025,0.2896,-0.1053,-1.510,47.721,-64.196,-32.63,-49.49,-0.63,-13.00,-12.38
2733,1039.56,1010.55,910.62,0.1641,0.0989,1.1702,10.893,0.887,4.470,-7.72,5.07,0.2380,-0.6084,0.7773,-5.088,-5.278,7.298,-13.53,-38.23,0.9801,0.2856,0.0785,14.963,73.965,-34.974,-31.65,-46.64,-0.63,-11.70,-11.07
2748,1031.50,1005.71,691.43,0.1672,0.1292,1.1738,10.221,5.177,3.386,-7.65,5.24,0.2605,-0.6431,0.7544,-1.866,-8.591,9.802,-13.67,-38.30,0.9147,0.4292,0.3140,2.704,53.003,-36.379,-31.45,-44.60,-0.65,-10.47,-9.82
2773,1663.30,1585.93,1752.75,0.1555,0.1201,1.1909,-3.855,3.467,9.539,-7.56,5.15,0.2195,-0.6267,0.6860,-4.217,-5.095,4.397,-13.79,-38.49,0.9580,0.3149,0.2775,-5.525,50.103,-39.051,-30.93,-42.87,-0.68,-9.30,-8.62
2787,1266.01,1051.65,949.30,0.1609,0.0876,1.2078,-4.893,1.315,11.050,-7.55,5.06,0.1909,-0.6577,0.7642,11.706,3.165,-3.847,-13.68,-38.37,0.9586,0.2667,0.3950,-5.693,19.446,-12.715,-31.31,-41.41,-0.70,-8.24,-7.54
2812,1663.30,1816.41,1750.33,0.1604,0.0601,1.1873,-0.634,-2.960,1.508,-7.62,5.00,0.2427,-0.6392,0.7366,-13.408,8.447,-7.175,-13.49,-38.74,1.0968,0.7046,0.1124,-5.021,-3.607,-34.791,-31.91,-39.08,-0.70,-7.29,-6.59
2827,2028.35,2204.84,2363.59,0.1636,0.1086,1.1685,0.572,-3.571,-0.965,-7.68,5.02,0.2212,-0.5796,0.7156,6.332,8.233,-13.160,-13.37,-38.66,0.9888,0.4056,0.0629,7.085,5.797,-4.028,-32.54,-36.58,-0.69,-6.44,-5.75
2851,1018.61,888.06,746.23,0.1606,0.1140,1.1660,3.946,0.902,-0.003,-7.66,5.13,0.2378,-0.5945,0.7642,2.882,11.165,-10.656,-13.11,-38.57,0.9750,0.2709,0.4271,-14.670,17.629,6.201,-32.71,-35.55,-0.66,-5.67,-5.01
2866,1010.55,959.78,737.36,0.1641,0.0977,1.1794,-1.901,2.948,-0.400,-7.62,5.09,0.2371,-0.6064,0.7869,-0.752,8.493,-9.587,-12.99,-38.56,0.9617,0.2826,0.3568,6.734,-17.836,1.255,-33.60,-33.98,-0.63,-5.02,-4.39
2891,1929.23,1971.14,2195.97,0.1526,0.1086,1.1860,-1.092,1.650,-0.186,-7.57,5.07,0.1975,-0.4924,0.6865,-4.645,8.401,-6.702,-12.79,-38.62,0.9514,0.3053,0.0394,-10.716,-16.142,5.041,-34.76,-31.91,-0.59,-4.50,-3.90
2905,1511.79,1456.19,1610.92,0.1580,0.1047,1.1880,2.710,-0.548,0.592,-7.58,5.11,0.2202,-0.5891,0.8147,7.263,6.142,-8.961,-12.69,-38.46,0.8711,0.3026,-0.0669,1.192,-1.287,-8.303,-35.50,-29.20,-0.55,-4.06,-3.51
2930,1361.10,1441.69,1269.23,0.1616,0.0984,1.1750,-1.443,-2.640,-0.247,-7.65,5.06,0.2278,-0.5698,0.7891,0.866,2.294,-5.083,-12.65,-38.39,1.0371,0.3958,0.2186,-6.090,5.461,7.743,-35.98,-27.55,-0.50,-3.69,-3.18
2944,1833.33,1930.04,1895.38,0.1599,0.1055,1.1731,-0.344,-1.479,-0.156,-7.67,5.06,0.2205,-0.5820,0.8110,-2.737,-0.851,-2.702,-12.66,-38.37,1.0176,0.3896,0.1531,1.757,2.851,16.644,-36.57,-25.60,-0.45,-3.38,-2.92
2969,1166.08,1097.58,1132.23,0.1611,0.0962,1.1782,2.542,1.345,0.379,-7.64,5.11,0.2239,-0.6069,0.7727,1.294,0.157,0.733,-12.66,-38.34,0.9286,0.1947,0.1840,-11.892,10.729,19.117,-37.06,-24.44,-0.41,-3.13,-2.71
2984,1062.93,1012.16,958.17,0.1565,0.1074,1.1816,-1.473,2.017,0.119,-7.61,5.10,0.2258,-0.6135,0.7729,0.470,-1.904,1.939,-12.69,-38.33,0.8903,0.3210,0.0231,7.391,2.790,12.491,-37.68,-22.13,-0.38,-2.94,-2.56
3008,1923.59,1964.69,2047.69,0.1599,0.1062,1.1919,2.465,0.780,0.821,-7.59,5.16,0.2170,-0.6189,0.7615,-0.874,-1.538,2.459,-12.72,-38.37,0.9144,-0.0269,-0.1201,13.879,37.080,-17.997,-37.68,-24.70,-0.35,-2.76,-2.41
3023,1649.60,1623.00,1751.94,0.1626,0.1047,1.1914,0.069,-0.609,0.592,-7.60,5.15,0.2319,-0.6145,0.7671,2.653,-1.431,0.016,-12.75,-38.34,1.0048,0.3982,0.8397,-101.800,99.400,-51.921,-36.46,-25.14,-0.33,-2.52,-2.19
3048,1280.51,1342.56,1283.74,0.1636,0.1099,1.1763,-1.947,-1.357,0.608,-7.64,5.11,0.2288,-0.6169,0.7698,-1.683,0.371,0.382,-12.75,-38.38,0.8868,0.2023,-0.0629,-42.701,65.110,-6.196,-35.67,-23.54,-0.30,-2.23,-1.92
3062,1577.07,1643.15,1544.03,0.1567,0.0989,1.1758,-1.626,-0.136,1.859,-7.64,5.08,0.2224,-0.6079,0.7893,4.989,0.294,-1.587,-12.74,-38.30,0.7925,0.1637,0.1726,-70.823,93.523,-8.287,-35.09,-23.21,-0.28,-1.92,-1.64
3087,1326.45,1288.57,1370.77,0.1558,0.1028,1.1848,0.282,1.345,-0.003,-7.61,5.08,0.2283,-0.6143,0.7671,-3.958,-0.042,1.329,-12.75,-38.40,0.8407,0.3690,0.1521,-86.441,121.782,-23.188,-32.70,-23.50,-0.26,-1.47,-1.21
3102,1173.33,1190.26,1259.56,0.1533,0.1060,1.1924,-0.222,1.162,-0.003,-7.58,5.08,0.2231,-0.6204,0.7612,-2.431,-0.377,0.672,-12.76,-38.45,1.0171,0.0708,0.3093,-86.518,100.179,-4.104,-32.08,-24.01,-0.24,-1.00,-0.76
3127,1843.81,1845.42,1762.42,0.1592,0.1021,1.1936,-0.115,-0.899,-0.049,-7.61,5.07,0.2327,-0.6121,0.7695,1.324,0.279,-0.564,-12.76,-38.42,0.5901,0.5151,0.1489,-21.937,98.301,-35.951,-29.98,-22.59,-0.23,-0.43,-0.20
3141,1818.02,1755.97,1747.11,0.1628,0.1040,1.1848,-0.405,-1.754,0.195,-7.63,5.07,0.2278,-0.6118,0.7773,1.431,0.203,-0.381,-12.76,-38.40,0.7300,0.3167,0.2286,-50.945,107.599,-26.409,-29.08,-21.78,-0.21,0.18,0.39
3166,1173.33,1237.00,1288.57,0.1641,0.1077,1.1797,0.175,0.078,0.058,-7.64,5.08,0.2266,-0.6133,0.7766,-2.782,-0.332,1.146,-12.77,-38.46,0.8523,0.1880,0.4061,-12.395,80.897,-35.753,-27.78,-21.15,-0.19,0.83,1.02
3181,1358.68,1474.73,1419.93,0.1631,0.1018,1.1804,-0.344,0.902,-0.278,-7.63,5.07,0.2214,-0.6196,0.7612,-0.889,-0.118,0.520,-12.77,-38.49,0.7917,0.3051,0.3588,-12.518,116.484,-18.318,-26.75,-20.10,-0.18,1.51,1.69
3206,1487.62,1420.73,1494.07,0.1589,0.1072,1.1914,0.465,1.238,0.088,-7.60,5.08,0.2268,-0.6025,0.7830,2.821,0.126,-1.145,-12.77,-38.40,0.5988,0.3579,0.2098,17.834,73.324,-25.005,-25.53,-18.07,-0.17,2.22,2.39
3220,1281.32,1237.00,1339.34,0.1572,0.1084,1.1841,-0.359,0.032,-0.217,-7.60,5.08,0.2322,-0.6072,0.7786,-3.515,-0.026,1.176,-12.78,-38.44,0.6527,0.1836,0.3368,-6.456,72.377,-53.020,-25.18,-17.22,-0.16,2.91,3.07
3245,1727.77,1747.11,1689.08,0.1553,0.1050,1.1836,0.053,-1.586,0.195,-7.63,5.08,0.2275,-0.6182,0.7632,1.538,-0.164,-0.519,-12.79,-38.42,0.4922,0.3931,0.3857,8.200,84.362,-55.707,-23.47,-15.77,-0.15,3.67,3.82
3259,1869.60,1821.25,1766.45,0.1592,0.1021,1.1729,0.069,-1.052,0.180,-7.65,5.08,0.2329,-0.6060,0.7856,2.683,-0.011,-0.992,-12.80,-38.36,0.7682,0.3196,0.4889,-9.983,104.729,-44.577,-22.56,-14.93,-0.14,4.44,4.58
3284,1160.44,1203.15,1261.17,0.1592,0.1064,1.1794,-0.023,0.505,-0.370,-7.63,5.08,0.2256,-0.6128,0.7690,-1.927,-0.255,0.550,-12.81,-38.41,0.7655,0.4561,0.7117,17.162,79.446,-42.776,-21.02,-13.57,-0.13,5.27,5.40
3299,1227.33,1327.25,1328.06,0.1536,0.1072,1.1851,0.496,1.070,-0.171,-7.61,5.09,0.2271,-0.6101,0.7754,-1.011,-0.271,0.031,-12.82,-38.42,0.7129,0.4337,0.5922,-14.853,96.668,-43.753,-20.11,-12.78,-0.13,6.10,6.23
3324,1640.73,1585.13,1611.72,0.1589,0.1060,1.1868,0.817,0.108,0.088,-7.61,5.11,0.2224,-0.6196,0.7673,1.157,-0.148,-0.412,-12.82,-38.40,0.9260,0.1210,0.8713,5.360,74.897,-39.890,-18.82,-12.24,-0.12,6.96,7.09
3338,1388.50,1356.26,1421.54,0.1584,0.1067,1.1855,-0.099,-0.930,-0.095,-7.62,5.11,0.2305,-0.6067,0.7827,1.462,-0.118,-0.717,-12.82,-38.37,0.7928,0.2212,0.8427,1.147,65.293,-45.234,-18.35,-11.68,-0.12,7.80,7.92
3363,1535.16,1622.20,1535.97,0.1553,0.1028,1.1794,0.908,-1.556,0.546,-7.66,5.13,0.2266,-0.6118,0.7625,-3.424,-0.377,0.886,-12.84,-38.46,0.6877,0.4451,0.7926,8.047,65.431,-46.241,-17.14,-10.67,-0.11,8.66,8.78
3377,1797.88,1840.59,1739.05,0.1619,0.1074,1.1758,0.267,-0.777,0.394,-7.67,5.13,0.2200,-0.6208,0.7717,0.714,-0.332,-0.427,-12.84,-38.46,0.7932,0.6622,0.8729,-2.991,45.736,-40.806,-16.87,-9.75,-0.11,9.49,9.59
3402,1182.20,1198.32,1278.90,0.1619,0.1077,1.1846,0.420,1.864,-0.202,-7.63,5.14,0.2349,-0.6116,0.7910,0.241,-0.148,-0.305,-12.85,-38.44,0.7550,0.5123,0.8038,-38.655,36.133,2.476,-16.42,-9.84,-0.11,10.28,10.39
3417,1173.33,1250.70,1280.51,0.1582,0.1047,1.1968,1.091,1.498,0.165,-7.61,5.16,0.2231,-0.6143,0.7634,-4.767,-0.011,1.741,-12.85,-38.51,0.3384,0.3319,0.4674,-30.976,28.545,2.598,-16.30,-9.38,-0.10,11.03,11.13
3441,1818.02,1726.96,1704.40,0.1594,0.0994,1.1902,-0.008,-1.846,0.058,-7.65,5.15,0.2283,-0.6165,0.7717,2.805,0.004,-1.267,-12.85,-38.45,0.5044,0.2943,0.6069,3.620,10.545,-34.928,-16.45,-8.59,-0.10,11.71,11.81
3456,1519.05,1471.50,1514.21,0.1602,0.1038,1.1753,-1.077,-2.136,-0.141,-7.68,5.13,0.2319,-0.6143,0.7827,2.592,0.065,-0.519,-12.85,-38.40,0.4619,0.3409,0.6985,17.376,-2.355,-52.241,-16.77,-7.65,-0.10,12.33,12.43
3481,1359.49,1481.17,1444.91,0.1592,0.0996,1.1785,2.328,1.254,0.608,-7.65,5.18,0.2263,-0.6067,0.7642,-1.088,0.020,0.504,-12.86,-38.43,0.5710,0.4004,0.5784,13.147,-1.073,-60.089,-17.24,-6.48,-0.09,12.87,12.97
3495,1667.33,1712.45,1655.24,0.1577,0.1069,1.1738,-1.382,1.162,-0.583,-7.63,5.16,0.2219,-0.6099,0.7681,-1.027,-0.240,0.489,-12.86,-38.45,0.6467,0.3440,0.6832,7.910,-8.035,-49.997,-17.82,-5.70,-0.09,13.33,13.42
3520,1276.48,1254.73,1340.15,0.1531,0.1133,1.1960,1.091,1.223,0.043,-7.60,5.19,0.2292,-0.6108,0.7766,2.012,0.203,-0.778,-12.86,-38.39,0.5094,0.5497,0.6747,15.971,-6.737,-33.738,-18.23,-4.42,-0.10,13.73,13.82
3535,1173.33,1210.40,1290.18,0.1614,0.1062,1.1887,0.817,-0.014,0.241,-7.60,5.20,0.2346,-0.6021,0.7815,0.653,-0.087,-0.351,-12.87,-38.37,0.6483,0.4548,0.7120,14.765,-16.294,-36.806,-18.85,-3.47,-0.10,14.05,14.15
3559,1858.32,1805.13,1731.79,0.1562,0.1099,1.1831,0.160,-2.090,0.211,-7.65,5.21,0.2307,-0.6196,0.7615,-2.920,-0.225,0.947,-12.88,-38.45,0.6322,0.5074,0.6744,-2.930,-7.577,-37.493,-19.39,-2.73,-0.10,14.32,14.42
3574,1712.45,1649.60,1665.71,0.1567,0.1035,1.1724,0.236,-1.189,0.241,-7.66,5.21,0.2300,-0.6184,0.7700,1.844,-0.133,-0.793,-12.89,-38.43,0.6587,0.5847,0.7051,8.704,-16.019,-26.440,-19.95,-1.76,-0.10,14.53,14.63
3599,1230.55,1324.84,1355.46,0.1609,0.1008,1.1760,-0.084,1.360,-0.018,-7.63,5.20,0.2339,-0.6099,0.7773,-0.966,-0.057,0.306,-12.90,-38.45,0.5906,0.5543,0.6251,-5.342,-10.752,-13.173,-20.51,-1.02,-0.10,14.69,14.79
3613,1457.00,1558.53,1527.11,0.1609,0.1089,1.1899,-0.451,1.727,-0.186,-7.61,5.20,0.2231,-0.6182,0.7710,-2.782,-0.209,0.932,-12.90,-38.50,0.6064,0.5469,0.6335,-1.586,-15.027,-8.058,-21.04,-0.21,-0.10,14.79,14.90
3638,1372.38,1368.35,1436.85,0.1592,0.1006,1.1956,0.847,-0.212,0.302,-7.61,5.21,0.2285,-0.6150,0.7637,1.386,0.035,-0.564,-12.90,-38.47,0.6366,0.5494,0.7194,15.101,-30.508,2.339,-22.06,0.91,-0.11,14.82,14.93
3653,1216.04,1220.88,1310.33,0.1597,0.1023,1.1936,-0.848,-1.769,-0.110,-7.64,5.19,0.2297,-0.6167,0.7705,1.126,0.035,-0.274,-12.91,-38.46,0.6315,0.7042,0.7313,32.322,-53.638,0.858,-23.02,2.23,-0.11,14.78,14.89
3677,1805.13,1805.13,1723.74,0.1641,0.1057,1.1765,1.259,-0.640,0.195,-7.66,5.22,0.2314,-0.6174,0.7710,-0.767,0.081,0.306,-12.91,-38.48,0.5803,0.5051,0.7075,36.734,-64.386,12.339,-24.79,3.78,-0.11,14.62,14.73
3692,1817.22,1732.60,1701.98,0.1619,0.1018,1.1797,-0.237,0.399,-0.080,-7.65,5.21,0.2271,-0.6123,0.7734,-0.920,0.096,0.474,-12.91,-38.49,0.5886,0.5078,0.5850,35.879,-69.958,18.751,-26.03,5.04,-0.11,14.39,14.49
3716,1188.64,1257.14,1302.27,0.1555,0.1140,1.1855,-0.191,1.452,-0.247,-7.62,5.21,0.2305,-0.6079,0.7834,2.653,0.142,-0.870,-12.91,-38.41,0.5635,0.5321,0.6896,52.353,-95.012,14.705,-28.47,6.96,-0.11,13.99,14.10
3731,1336.12,1440.07,1398.17,0.1580,0.1147,1.1880,0.374,1.116,-0.110,-7.60,5.22,0.2297,-0.6042,0.7866,-0.508,0.020,0.260,-12.91,-38.40,0.6097,0.5293,0.8402,61.131,-126.401,5.728,-30.34,8.34,-0.11,13.50,13.61
3756,1511.79,1469.08,1546.45,0.1584,0.1057,1.1897,-0.649,-1.586,0.043,-7.64,5.20,0.2241,-0.6182,0.7651,-1.103,0.050,0.138,-12.91,-38.44,0.6509,0.5380,0.6744,89.879,-187.195,-3.142,-35.01,11.12,-0.12,12.71,12.82
3770,1320.81,1289.38,1431.21,0.1626,0.1035,1.1831,-0.420,-1.861,-0.018,-7.67,5.19,0.2288,-0.6138,0.7739,2.225,0.020,-0.992,-12.91,-38.41,0.7753,0.5580,0.2950,50.292,-178.432,3.988,-37.89,12.86,-0.11,11.78,11.89
3795,1652.82,1685.05,1577.07,0.1643,0.1006,1.1755,0.374,-0.227,0.134,-7.68,5.20,0.2253,-0.6130,0.7705,-0.950,-0.072,0.107,-12.91,-38.43,0.7832,0.5878,0.2634,12.490,-108.157,40.430,-40.76,14.23,-0.11,10.71,10.82
3810,1852.67,1846.23,1789.82,0.1646,0.1021,1.1748,-0.786,0.750,-0.476,-7.67,5.18,0.2273,-0.6147,0.7673,-0.935,-0.087,0.214,-12.92,-38.45,0.8071,0.4872,0.3431,-56.685,-72.737,53.346,-42.06,14.23,-0.11,9.63,9.74
3834,1162.86,1174.14,1237.00,0.1562,0.1045,1.1875,0.481,1.299,-0.141,-7.64,5.19,0.2273,-0.6130,0.7720,0.989,-0.026,-0.320,-12.92,-38.43,0.9093,0.4854,0.4164,-26.670,-118.187,61.255,-45.18,14.28,-0.11,8.40,8.52
3849,1164.47,1193.48,1116.12,0.1545,0.1042,1.1926,-0.435,-0.090,-0.247,-7.63,5.18,0.2280,-0.6121,0.7751,1.401,0.081,-0.503,-12.92,-38.40,0.6404,0.6063,0.1179,0.841,-131.424,58.247,-47.08,15.59,-0.12,7.13,7.24
3874,1830.11,1854.29,2042.86,0.1577,0.1096,1.1829,0.343,-1.754,0.241,-7.67,5.19,0.2295,-0.6091,0.7712,-1.683,-0.225,0.260,-12.93,-38.44,0.6381,0.4889,0.1666,15.864,-99.577,48.568,-49.57,17.09,-0.12,5.77,5.88
3888,1562.56,1585.13,1862.34,0.1606,0.1045,1.1719,0.084,-1.311,0.302,-7.69,5.19,0.2319,-0.6133,0.7600,-0.706,0.081,0.214,-12.94,-38.46,0.7415,0.3831,-0.1692,13.085,-83.592,19.575,-50.99,19.21,-0.12,4.41,4.52
3913,1484.40,1928.42,2029.96,0.1631,0.1064,1.1816,-0.206,0.796,-0.049,-7.68,5.18,0.2351,-0.6052,0.7771,1.553,-0.072,-0.503,-12.95,-38.41,1.1432,0.8947,0.6807,-12.777,17.690,22.537,-50.45,19.57,-0.12,3.18,3.30
3928,2179.05,2720.59,3300.00,0.1604,0.1064,1.1860,0.099,1.879,-0.125,-7.65,5.18,0.2302,-0.6152,0.7812,-1.347,-0.026,0.443,-12.95,-38.43,1.0093,0.7023,0.6661,37.192,-36.600,90.400,-50.89,20.64,-0.12,2.00,2.12
3953,871.14,447.25,0.00,0.1597,0.1038,1.1965,-0.206,0.154,-0.095,-7.64,5.17,0.2200,-0.6172,0.7717,0.363,0.065,-0.213,-12.94,-38.43,0.8470,0.4186,0.2654,-25.235,-55.989,82.827,-52.43,20.77,-0.12,0.80,0.93
3967,758.32,503.66,0.00,0.1553,0.1086,1.2002,-0.222,-1.174,-0.018,-7.65,5.17,0.2263,-0.6140,0.7727,1.095,0.004,-0.473,-12.94,-38.41,0.9150,0.5406,0.4148,-10.136,-85.073,88.629,-53.66,21.26,-0.12,-0.40,-0.28
3982,938.83,1049.23,752.67,0.1589,0.0994,1.1807,0.099,-1.830,0.149,-7.68,5.17,0.2271,-0.6125,0.7798,0.347,0.172,-0.244,-12.94,-38.40,0.9156,0.6035,0.4559,-25.693,-102.493,112.033,-55.07,21.52,-0.12,-1.61,-1.49
4007,1789.82,1638.32,1883.30,0.1597,0.1084,1.1731,-0.191,-0.304,0.073,-7.69,5.16,0.2290,-0.6111,0.7732,-0.950,0.111,-0.183,-12.94,-38.42,0.6582,0.4790,-0.4454,-19.968,-53.409,44.354,-56.16,23.26,-0.12,-2.82,-2.70
4021,1195.09,819.56,460.15,0.1624,0.1040,1.1777,0.053,1.040,-0.095,-7.68,5.16,0.2268,-0.6147,0.7700,-0.217,-0.103,-0.015,-12.94,-38.43,1.0841,0.5507,0.0009,-12.991,-10.035,50.232,-56.45,24.41,-0.12,-3.96,-3.84
4046,1742.27,2163.74,2530.40,0.1587,0.1038,1.1890,0.053,1.192,-0.263,-7.65,5.16,0.2322,-0.6084,0.7761,1.157,0.020,-0.473,-12.94,-38.39,0.7948,0.1166,0.2301,0.322,-75.989,41.102,-58.60,24.47,-0.12,-5.18,-5.05
4061,2292.67,2802.78,3300.00,0.1582,0.1072,1.1902,-0.435,0.139,-0.171,-7.64,5.15,0.2300,-0.6152,0.7810,-1.011,-0.072,0.062,-12.95,-38.40,0.7250,0.3282,-0.3575,-1.800,-51.103,26.110,-59.28,26.70,-0.13,-6.36,-6.23
4085,797.80,451.28,0.00,0.1609,0.1064,1.1880,0.389,-1.327,0.287,-7.67,5.16,0.2273,-0.6179,0.7759,0.347,0.050,-0.122,-12.94,-38.40,1.1343,0.6246,0.1683,11.711,0.011,30.629,-59.30,27.95,-0.13,-7.45,-7.32
4100,795.38,695.46,278.83,0.1631,0.1069,1.1753,-0.145,-1.235,-0.064,-7.70,5.16,0.2273,-0.6096,0.7739,1.019,0.035,-0.320,-12.95,-38.38,1.0203,0.6093,-0.0615,53.574,-1.760,62.262,-59.32,30.07,-0.12,-8.47,-8.34
4114,1136.26,1338.53,1271.65,0.1582,0.1082,1.1753,-0.328,-0.090,-0.278,-7.70,5.16,0.2314,-0.6096,0.7854,-0.095,0.111,-0.091,-12.95,-38.37,0.9413,0.4520,-0.1454,25.650,21.202,92.430,-59.10,31.99,-0.12,-9.40,-9.28
4139,1599.63,1407.03,1415.90,0.1621,0.1042,1.1882,0.267,1.452,-0.202,-7.66,5.16,0.2297,-0.6155,0.7712,-0.462,0.065,0.077,-12.95,-38.39,1.1167,0.3325,0.0657,18.292,20.637,100.186,-58.87,33.38,-0.13,-10.25,-10.13
4154,1075.82,703.52,305.42,0.1602,0.1067,1.1929,-0.252,0.872,-0.141,-7.65,5.16,0.2285,-0.6169,0.7747,0.363,0.050,-0.152,-12.95,-38.38,1.1038,0.3907,-0.1840,25.177,22.484,133.911,-58.75,35.37,-0.13,-11.04,-10.91
4179,1910.70,2326.52,2795.53,0.1604,0.0991,1.1868,0.191,-0.930,0.073,-7.67,5.15,0.2341,-0.6106,0.7739,0.347,0.004,-0.106,-12.96,-38.37,0.6265,-0.2053,-0.1000,56.948,73.003,139.010,-57.20,33.73,-0.13,-11.66,-11.53
4193,2308.79,2693.99,3300.00,0.1597,0.1055,1.1838,0.435,-1.311,0.226,-7.69,5.16,0.2310,-0.6123,0.7793,-0.843,0.035,0.275,-12.96,-38.38,0.9696,0.3562,0.2112,14.078,116.729,73.927,-55.73,34.44,-0.13,-12.13,-12.00
4218,791.36,528.64,24.18,0.1597,0.1062,1.1748,-0.542,-0.212,-0.156,-7.70,5.15,0.2290,-0.6123,0.7727,0.805,-0.087,-0.244,-12.96,-38.36,0.6813,-0.1354,0.6685,14.414,1.782,46.339,-55.48,33.88,-0.13,-12.55,-12.42
4233,868.72,881.61,562.49,0.1609,0.1064,1.1812,0.206,0.887,-0.186,-7.68,5.15,0.2324,-0.6113,0.7793,1.004,-0.042,-0.320,-12.97,-38.34,0.9523,-0.1101,-0.2877,-3.556,22.210,28.247,-55.49,29.97,-0.13,-12.95,-12.82
4257,1988.86,1952.60,2271.72,0.1584,0.1084,1.1892,0.130,1.101,-0.141,-7.65,5.15,0.2258,-0.6121,0.7820,-1.134,-0.103,0.367,-12.97,-38.36,1.5511,0.5431,-0.9259,70.826,76.729,89.041,-53.63,34.08,-0.13,-13.18,-13.05
4272,1357.07,1083.08,863.88,0.1626,0.1072,1.1885,-0.466,-0.121,-0.110,-7.66,5.15,0.2253,-0.6123,0.7715,0.012,-0.240,0.123,-12.97,-38.37,0.8109,0.2604,0.2946,37.391,55.660,103.407,-53.05,34.76,-0.13,-13.36,-13.23
4297,1495.68,1846.23,1996.12,0.1631,0.1064,1.1853,0.236,-1.418,-0.018,-7.70,5.15,0.2244,-0.6147,0.7791,0.118,0.020,-0.106,-12.97,-38.36,0.9033,0.0249,0.6139,38.276,51.904,31.148,-51.84,35.04,-0.13,-13.44,-13.31
4311,2124.25,2507.84,3285.49,0.1631,0.0977,1.1812,-0.496,-0.960,-0.110,-7.71,5.14,0.2288,-0.6116,0.7795,0.027,0.020,0.062,-12.97,-38.36,1.0441,0.0239,0.6455,0.154,32.408,34.247,-51.51,34.38,-0.13,-13.50,-13.36
4336,938.83,683.37,211.94,0.1604,0.1021,1.1707,0.023,0.567,0.043,-7.70,5.13,0.2278,-0.6150,0.7688,-0.447,-0.057,0.107,-12.97,-38.37,1.1400,-0.1031,0.2003,-53.846,-28.905,55.972,-52.76,31.84,-0.13,-13.63,-13.50
4350,844.54,676.12,249.01,0.1589,0.1047,1.1858,-0.542,1.376,-0.385,-7.68,5.12,0.2278,-0.6199,0.7700,0.531,0.035,-0.106,-12.97,-38.37,0.4922,-0.0005,0.8661,-84.716,-12.371,77.331,-52.47,30.00,-0.13,-13.74,-13.60
4375,2222.56,2332.16,2939.78,0.1599,0.1104,1.1941,-0.191,0.139,-0.141,-7.67,5.12,0.2310,-0.6140,0.7747,0.118,-0.011,0.000,-12.97,-38.37,0.6984,-0.6542,1.0743,-39.800,-90.615,-100.822,-54.20,27.81,-0.14,-13.96,-13.82
4390,1666.52,1504.54,1523.08,0.1582,0.1099,1.1855,-0.344,-0.884,0.104,-7.68,5.12,0.2283,-0.6077,0.7739,-0.737,-0.072,0.306,-12.97,-38.38,1.6448,1.2621,-1.3115,39.910,-126.569,-77.554,-55.76,30.54,-0.14,-14.27,-14.14
4415,1123.37,1324.84,1288.57,0.1619,0.1089,1.1792,0.481,-0.731,0.226,-7.70,5.14,0.2307,-0.6091,0.7703,0.637,-0.118,-0.396,-12.98,-38.36,0.9670,-0.3906,-0.2490,-30.044,-59.485,59.316,-57.38,26.75,-0.14,-14.68,-14.54
4429,1776.92,2122.64,2436.92,0.1658,0.1067,1.1829,0.801,0.231,-0.003,-7.70,5.15,0.2302,-0.6003,0.7710,0.134,0.081,-0.473,-12.99,-38.35,0.8606,-0.2324,-0.0557,-80.945,-4.813,20.843,-57.79,22.99,-0.14,-15.08,-14.95
4454,1104.03,806.67,490.77,0.1602,0.1035,1.1855,-0.054,1.162,0.211,-7.68,5.14,0.2273,-0.6199,0.7795,-0.324,-0.347,0.520,-12.99,-38.36,1.0569,-0.3710,0.5739,12.215,16.805,-27.493,-57.37,22.17,-0.14,-15.43,-15.29
4468,1171.72,1170.92,1237.00,0.1621,0.1089,1.1877,0.832,1.254,0.149,-7.66,5.16,0.2292,-0.6140,0.7712,0.134,0.020,0.000,-12.99,-38.36,1.3956,0.6620,1.5095,-14.029,-78.905,-19.951,-58.15,22.00,-0.14,-15.81,-15.67
4493,1865.57,1871.21,1755.16,0.1582,0.1052,1.1904,0.038,-0.746,0.226,-7.67,5.16,0.2310,-0.6121,0.7742,-0.050,0.218,-0.427,-12.99,-38.36,1.0177,0.0557,0.2439,-45.861,-59.806,24.262,-59.97,20.70,-0.15,-16.29,-16.15
4508,1779.34,1723.74,1677.00,0.1567,0.1011,1.1809,0.175,-1.296,0.379,-7.69,5.15,0.2292,-0.6125,0.7747,0.149,-0.087,-0.183,-13.00,-38.36,0.9895,0.0508,-0.0123,-51.434,-58.539,16.720,-61.34,21.62,-0.15,-16.83,-16.69
4533,1191.87,1286.96,1344.98,0.1611,0.1055,1.1763,0.832,-0.288,0.027,-7.70,5.17,0.2297,-0.6174,0.7693,-0.248,-0.072,0.291,-13.00,-38.37,0.7623,0.1455,-0.2355,-15.144,-43.470,36.751,-62.58,23.79,-0.15,-17.42,-17.27
4547,1392.53,1482.78,1447.33,0.1609,0.0974,1.1741,-0.206,0.567,0.211,-7.69,5.16,0.2249,-0.6104,0.7788,0.531,-0.057,-0.244,-13.00,-38.36,1.1356,0.0968,-0.2046,6.765,-18.340,26.369,-63.17,26.50,-0.15,-18.01,-17.86
4572,1495.68,1440.07,1481.17,0.1643,0.1077,1.1848,0.572,1.040,-0.049,-7.67,5.18,0.2273,-0.6167,0.7891,-0.385,-0.103,0.367,-12.99,-38.36,1.2578,-0.0374,-0.1029,-3.861,27.461,42.797,-62.93,22.68,-0.15,-18.54,-18.39
4587,1278.10,1237.00,1377.22,0.1582,0.1096,1.1938,0.175,0.231,-0.049,-7.66,5.18,0.2283,-0.6113,0.7717,-0.462,-0.118,0.321,-13.00,-38.37,1.0730,-0.0502,0.0365,-16.991,29.813,52.598,-62.98,20.90,-0.15,-19.04,-18.89
4612,1726.15,1768.86,1649.60,0.1660,0.1064,1.1814,0.114,-1.067,-0.003,-7.70,5.18,0.2295,-0.6138,0.7776,0.363,0.126,-0.320,-13.00,-38.36,0.9211,-0.0408,0.1476,13.711,25.187,58.018,-62.72,20.51,-0.15,-19.49,-19.33
4626,1861.54,1818.02,1718.90,0.1638,0.1028,1.1787,-0.206,-0.487,-0.049,-7.71,5.18,0.2302,-0.6125,0.7776,0.393,0.035,-0.137,-13.00,-38.35,0.9700,0.0156,0.0214,25.666,25.919,62.797,-62.86,21.19,-0.15,-19.91,-19.76
4651,1151.58,1199.12,1284.54,0.1577,0.1155,1.1802,1.534,0.918,0.669,-7.68,5.22,0.2183,-0.6248,0.7722,0.515,-0.087,-0.992,-12.99,-38.35,1.0879,-0.1454,0.0919,25.009,58.377,67.087,-61.80,20.22,-0.15,-20.23,-20.08
4666,1230.55,1303.08,1340.15,0.1531,0.1169,1.2058,3.366,0.872,1.691,-7.66,5.28,0.2319,-0.6296,0.7480,3.859,2.065,-4.717,-12.96,-38.33,1.1302,-0.1897,0.1310,-5.907,75.614,68.156,-61.05,18.63,-0.15,-20.48,-20.32
4691,1714.87,1637.51,1636.70,0.1523,0.1296,1.1882,-4.008,-6.151,4.638,-7.80,5.20,0.1667,-0.6196,0.7505,-3.439,2.905,-5.343,-12.83,-38.44,1.0137,-0.1672,0.2166,-1.495,93.813,71.438,-59.04,17.46,-0.14,-20.56,-20.42
4705,1436.04,1378.83,1446.52,0.1636,0.1089,1.1626,-6.542,-8.182,8.165,-7.92,5.11,0.2593,-0.5745,0.7773,1.599,5.134,-6.091,-12.80,-38.38,1.0264,-0.2689,0.2952,-6.792,75.538,85.865,-58.16,16.17,-0.11,-20.56,-20.45
4730,1468.28,1597.22,1514.21,0.1436,0.0427,1.1494,-5.367,2.994,3.310,-7.83,4.92,0.2686,-0.5872,0.7993,-1.271,1.745,0.245,-12.80,-38.37,0.9218,-0.1644,0.3214,-3.754,20.026,79.102,-57.88,15.21,-0.09,-20.55,-20.46
4745,1764.03,1793.85,1709.23,0.1904,0.0496,1.1807,-2.924,7.070,-7.102,-7.76,4.82,0.2227,-0.6001,0.8059,-0.523,-1.232,1.619,-12.82,-38.34,0.8406,-0.1053,0.2162,5.253,1.232,77.056,-58.18,14.46,-0.08,-20.57,-20.49
4769,1203.96,1207.99,1290.99,0.1628,0.1235,1.2234,7.717,3.925,-10.125,-7.66,5.03,0.2327,-0.6306,0.7776,2.637,-2.958,3.115,-12.89,-38.29,0.8588,-0.2188,0.2168,2.902,13.477,98.873,-58.10,13.34,-0.08,-20.58,-20.51
4784,1176.56,1229.74,1274.87,0.1584,0.1482,1.2048,4.007,-3.632,-4.950,-7.71,5.13,0.2351,-0.6626,0.7512,-6.248,0.325,2.123,-12.89,-38.44,0.9500,-0.2998,0.2195,5.009,7.507,101.423,-58.20,12.07,-0.07,-20.60,-20.53
4809,1845.42,1794.65,1747.91,0.1680,0.1162,1.1526,-4.664,-6.838,4.119,-7.88,5.03,0.2366,-0.6042,0.7803,1.508,2.142,-1.038,-12.85,-38.39,1.0725,-0.3948,0.2880,0.353,-6.096,80.110,-58.50,10.76,-0.06,-20.63,-20.57
4823,1633.48,1552.09,1578.68,0.1653,0.0874,1.1477,-3.611,-1.464,4.867,-7.91,4.96,0.2261,-0.6125,0.7786,-0.538,0.126,0.459,-12.85,-38.40,0.9880,-0.3931,0.3174,-3.189,-34.264,70.614,-59.07,9.48,-0.04,-20.69,-20.65
4848,1288.57,1400.59,1393.33,0.1689,0.0850,1.1814,-1.550,7.681,-0.705,-7.73,4.91,0.2385,-0.6157,0.7920,0.439,-0.423,-0.091,-12.87,-38.37,0.8196,-0.2690,0.1071,-8.243,-25.042,86.262,-59.91,7.72,-0.04,-20.82,-20.79
4863,1573.04,1663.30,1591.58,0.1555,0.1150,1.2104,-1.580,6.460,-1.484,-7.63,4.89,0.2329,-0.6067,0.7622,-2.889,0.035,0.581,-12.88,-38.42,0.9426,-0.3868,0.1461,-10.899,8.042,93.117,-59.92,6.03,-0.04,-20.95,-20.91
4887,1303.08,1271.65,1356.26,0.1587,0.0989,1.2031,0.160,-3.708,0.119,-7.72,4.89,0.2346,-0.6060,0.7827,3.752,0.569,-1.679,-12.88,-38.31,0.9536,-0.4906,0.3044,-9.464,8.133,91.087,-59.70,4.51,-0.04,-21.05,-21.01
4902,1178.17,1191.87,1237.00,0.1631,0.0957,1.1775,-1.306,-7.937,-0.125,-7.83,4.87,0.2332,-0.6011,0.7981,-0.019,-0.103,0.077,-12.89,-38.29,0.9147,-0.4486,0.2396,-9.586,-0.523,84.827,-59.74,3.05,-0.03,-21.14,-21.10
4927,1855.09,1854.29,1766.45,0.1714,0.0974,1.1467,0.633,-0.930,-0.278,-7.87,4.89,0.2205,-0.6279,0.7651,-0.462,-0.332,0.611,-12.89,-38.32,0.8383,-0.4468,0.2369,-15.907,-5.256,73.743,-59.85,1.36,-0.02,-21.22,-21.20
4941,1789.82,1736.63,1691.50,0.1672,0.0967,1.1694,0.023,4.200,-0.522,-7.81,4.88,0.2324,-0.6033,0.7781,3.263,0.203,-1.465,-12.89,-38.26,0.8329,-0.4644,0.2312,-17.159,-12.874,69.682,-60.00,-0.19,-0.01,-21.31,-21.30
4966,1184.62,1294.21,1307.11,0.1609,0.1077,1.2083,-0.191,5.284,-0.370,-7.68,4.88,0.2280,-0.6118,0.7727,-2.156,0.081,0.672,-12.89,-38.32,0.8174,-0.5028,0.1775,-22.853,-24.111,71.713,-60.52,-2.15,-0.02,-21.45,-21.43
4981,1392.53,1508.57,1458.61,0.1555,0.1040,1.2122,0.175,0.475,-0.049,-7.66,4.89,0.2271,-0.6135,0.7747,-0.202,-0.118,0.107,-12.90,-38.32,0.8104,-0.5494,0.2382,-29.128,-28.172,78.598,-60.78,-3.85,-0.02,-21.59,-21.57
5005,1470.70,1405.42,1460.22,0.1650,0.0999,1.1812,-0.069,-6.166,0.317,-7.82,4.88,0.2258,-0.6162,0.7737,0.057,0.004,0.092,-12.89,-38.32,0.8566,-0.6179,0.1946,-23.464,-25.485,69.041,-61.24,-5.80,-0.02,-21.74,-21.73
5020,1250.70,1237.00,1289.38,0.1670,0.1011,1.1582,-1.046,-4.014,-0.171,-7.88,4.87,0.2307,-0.6091,0.7695,1.370,0.126,-0.625,-12.90,-38.31,0.8625,-0.6267,0.1841,-19.357,-26.371,63.377,-61.45,-7.43,-0.01,-21.90,-21.89
5045,1736.63,1795.46,1727.77,0.1660,0.0962,1.1733,0.053,3.666,-0.415,-7.80,4.87,0.2280,-0.6084,0.7749,-2.095,0.096,0.535,-12.90,-38.35,0.7180,-0.5969,0.1055,-38.670,-29.974,63.346,-61.95,-9.82,-0.00,-22.08,-22.08
5059,1865.57,1841.39,1774.51,0.1621,0.1023,1.1941,-1.458,5.254,-0.919,-7.72,4.85,0.2275,-0.6213,0.7729,-1.118,-0.179,0.596,-12.90,-38.38,0.7223,-0.6030,0.1337,-38.960,-39.119,69.453,-62.26,-11.73,-0.01,-22.28,-22.27
5084,1149.96,1201.54,1237.00,0.1582,0.1062,1.2087,0.923,-0.044,0.363,-7.71,4.87,0.2297,-0.6052,0.7876,1.950,0.172,-0.610,-12.90,-38.31,0.7605,-0.6843,0.1803,-22.456,-34.737,50.354,-62.80,-13.55,-0.01,-22.50,-22.49
5099,1224.91,1365.93,1344.98,0.1636,0.1003,1.1929,-1.260,-4.014,0.088,-7.77,4.85,0.2332,-0.6174,0.7844,-1.729,-0.042,0.626,-12.91,-38.34,0.6475,-0.6053,0.1002,-16.472,-28.111,43.377,-62.87,-15.12,-0.01,-22.71,-22.70
5123,1641.54,1583.52,1601.25,0.1648,0.1057,1.1646,1.076,-2.716,0.195,-7.84,4.89,0.2273,-0.6138,0.7693,0.637,-0.042,-0.274,-12.91,-38.33,0.7260,-0.6807,0.0699,-18.044,-23.500,38.110,-63.12,-16.94,-0.00,-22.91,-22.91
5138,1386.89,1316.78,1367.55,0.1667,0.0974,1.1633,-0.817,1.162,-0.247,-7.83,4.87,0.2273,-0.6074,0.7771,1.584,0.020,-0.290,-12.91,-38.30,0.8994,-0.7603,0.0287,-8.212,-22.264,10.568,-63.17,-18.47,0.00,-23.11,-23.11
5163,1536.78,1660.88,1573.04,0.1567,0.1055,1.1948,-0.786,3.971,-0.690,-7.73,4.86,0.2288,-0.6128,0.7729,-0.355,-0.148,0.520,-12.92,-38.31,0.9838,-0.7761,-0.0369,-11.647,-19.485,-37.173,-63.41,-20.24,-0.00,-23.32,-23.32
5177,1814.80,1845.42,1766.45,0.1584,0.1003,1.2043,0.191,2.154,-0.018,-7.69,4.86,0.2278,-0.6108,0.7781,-0.813,0.035,0.306,-12.92,-38.32,0.9100,-0.7557,0.0364,-6.426,-20.126,-68.883,-63.44,-21.68,-0.01,-23.51,-23.51
5202,1185.42,1185.42,1237.00,0.1616,0.1013,1.1880,-0.145,-3.479,0.317,-7.78,4.86,0.2273,-0.6152,0.7751,0.653,0.233,-0.122,-12.91,-38.30,0.6895,-0.6504,0.1123,4.444,-33.226,-87.921,-63.90,-22.74,-0.01,-23.72,-23.72
5217,1158.02,1224.10,1273.26,0.1621,0.0999,1.1655,-0.878,-3.189,-0.080,-7.83,4.84,0.2305,-0.6055,0.7827,1.523,0.020,-0.549,-12.92,-38.27,0.7095,-0.6003,0.0988,6.643,-21.485,-90.440,-63.92,-23.80,-0.00,-23.91,-23.91
5242,1839.78,1775.31,1743.08,0.1650,0.1003,1.1724,1.076,1.376,0.073,-7.79,4.87,0.2305,-0.6133,0.7732,-2.019,-0.026,0.779,-12.92,-38.32,0.9103,-0.6464,0.0081,-2.502,-17.821,-97.005,-64.17,-25.17,-0.00,-24.11,-24.11
5256,1584.32,1542.42,1544.84,0.1594,0.1025,1.1880,-1.443,3.131,-0.736,-7.75,4.85,0.2285,-0.6128,0.7615,0.653,0.035,-0.183,-12.93,-38.32,1.0461,-0.6838,-0.0402,-11.220,-22.401,-124.012,-64.34,-26.70,-0.00,-24.31,-24.31
5281,1328.06,1457.80,1414.29,0.1594,0.1030,1.1956,0.465,0.628,0.134,-7.73,4.86,0.2336,-0.6082,0.7812,0.042,-0.057,0.046,-12.93,-38.31,1.0070,-0.7000,0.2880,19.650,-8.340,-222.241,-64.32,-27.04,-0.01,-24.50,-24.49
5296,1569.01,1677.00,1594.80,0.1628,0.1021,1.1931,-1.015,-1.525,-0.034,-7.75,4.85,0.2288,-0.6143,0.7749,-1.393,-0.026,0.550,-12.94,-38.33,0.5431,-0.4999,0.2660,40.612,-6.691,-226.990,-64.00,-27.15,-0.01,-24.65,-24.64
5321,1324.84,1277.29,1344.98,0.1631,0.1060,1.1726,1.305,-1.876,0.256,-7.80,4.89,0.2202,-0.6189,0.7815,-0.263,-0.133,0.306,-12.93,-38.34,0.4681,-0.2567,0.0303,38.689,-76.905,-133.951,-65.81,-27.34,-0.01,-24.91,-24.90
5335,1183.81,1187.84,1258.75,0.1658,0.0991,1.1748,-1.550,0.078,-0.553,-7.80,4.86,0.2053,-0.6284,0.7822,0.821,-0.362,0.596,-12.91,-38.34,0.7278,-0.3082,-0.0720,0.689,-100.874,-65.951,-67.28,-28.84,-0.00,-25.25,-25.25
5360,1861.54,1838.97,1765.64,0.1655,0.1089,1.1897,0.725,2.047,-0.354,-7.75,4.89,0.2583,-0.6028,0.7834,-0.630,0.584,-1.236,-12.93,-38.34,0.9559,-0.2852,-0.2740,5.467,-61.332,-81.234,-68.77,-30.81,-0.01,-25.68,-25.68
5375,1792.23,1711.65,1686.67,0.1619,0.1008,1.1956,-0.619,1.559,-0.171,-7.73,4.88,0.2222,-0.6167,0.7764,-1.637,0.279,0.443,-12.92,-38.36,1.0507,-0.3612,-0.0983,-9.082,-33.165,-68.577,-69.28,-32.43,-0.01,-26.12,-26.11
5399,1199.12,1284.54,1328.06,0.1663,0.1111,1.1897,-0.328,-1.540,0.043,-7.77,4.88,0.2351,-0.6082,0.7766,1.279,-0.011,-0.519,-12.93,-38.33,0.8011,-0.2726,-0.0227,-56.548,-31.821,-96.837,-70.09,-35.05,-0.01,-26.58,-26.57
5414,1392.53,1490.84,1457.80,0.1636,0.0991,1.1799,-0.405,-1.632,0.241,-7.80,4.87,0.2317,-0.6084,0.7859,0.164,-0.057,0.168,-12.93,-38.31,0.7861,-0.1154,-0.4169,-45.510,-32.355,-98.119,-70.37,-38.29,-0.01,-27.02,-27.02
5439,1452.16,1426.37,1474.73,0.1650,0.1006,1.1726,0.618,0.719,-0.064,-7.78,4.89,0.2280,-0.6096,0.7749,-0.279,0.142,0.000,-12.93,-38.32,1.2262,-0.0353,-0.8368,-15.632,77.645,-110.073,-68.19,-41.46,-0.01,-27.29,-27.28
5453,1276.48,1254.73,1373.99,0.1621,0.0996,1.1821,-1.733,1.467,-0.705,-7.76,4.86,0.2256,-0.6125,0.7786,0.286,0.126,0.153,-12.93,-38.31,1.5656,-0.1821,-0.3540,7.711,120.881,-72.516,-66.61,-43.57,-0.01,-27.42,-27.41
5478,1714.87,1732.60,1628.64,0.1575,0.1006,1.1895,1.244,0.551,0.211,-7.74,4.89,0.2261,-0.6125,0.7727,0.424,-0.026,-0.229,-12.93,-38.30,1.5571,0.0667,-0.0935,-47.418,107.614,57.239,-64.38,-40.96,-0.01,-27.39,-27.38
5493,2321.69,2617.44,3107.40,0.1558,0.0964,1.1902,-1.748,-0.808,-0.156,-7.75,4.86,0.2305,-0.6025,0.7729,0.500,0.371,-0.656,-12.93,-38.29,0.3275,-0.2047,0.0535,123.467,60.973,23.499,-63.36,-39.89,-0.01,-27.29,-27.28
5517,778.46,568.13,224.03,0.1692,0.1082,1.1704,1.549,-1.174,0.317,-7.79,4.91,0.2202,-0.6191,0.7671,-1.042,0.081,0.321,-12.92,-38.33,-0.3262,-0.1238,1.4709,-18.655,59.919,-45.219,-60.39,-39.64,-0.01,-26.99,-26.98
5532,938.83,996.04,824.40,0.1638,0.0984,1.1753,-1.199,-0.121,-0.370,-7.79,4.89,0.2236,-0.6145,0.7742,1.660,-0.347,-0.122,-12.92,-38.30,1.8018,-0.2010,0.5638,-19.388,-24.584,-164.516,-60.97,-39.52,-0.01,-26.75,-26.74
5557,1859.93,1758.39,1859.93,0.1624,0.1104,1.1885,0.771,2.154,-0.202,-7.74,4.92,0.2351,-0.6094,0.7766,-1.072,0.065,0.077,-12.93,-38.33,0.7235,0.6217,0.1207,10.505,-116.416,28.980,-63.55,-36.89,-0.01,-26.71,-26.70
5571,1275.68,957.36,786.52,0.1663,0.1001,1.1963,-1.306,1.055,-0.507,-7.72,4.89,0.2292,-0.6108,0.7610,-0.798,-0.042,0.352,-12.94,-38.35,0.6620,0.7418,-0.7266,-5.388,-87.226,27.316,-64.18,-33.54,-0.02,-26.72,-26.70
5596,1596.41,1972.75,2114.58,0.1650,0.1108,1.1914,0.007,-1.204,0.043,-7.76,4.90,0.2275,-0.6101,0.7800,0.637,-0.133,-0.061,-12.94,-38.33,1.4993,0.0795,-0.6393,17.345,39.141,64.568,-63.27,-28.99,-0.02,-26.66,-26.64
5611,2249.16,2697.22,3140.44,0.1592,0.1016,1.1753,-0.573,-1.372,-0.263,-7.77,4.90,0.2305,-0.6133,0.7769,-0.141,0.004,0.107,-12.94,-38.33,1.1444,-0.2523,0.3846,52.734,69.919,87.072,-62.37,-28.32,-0.02,-26.54,-26.52
5636,811.50,502.86,282.05,0.1570,0.1021,1.1770,0.465,0.353,0.149,-7.76,4.91,0.2288,-0.6111,0.7756,-0.172,0.020,0.062,-12.94,-38.33,0.7688,-0.5405,0.7471,-11.189,34.255,15.438,-61.09,-28.74,-0.02,-26.34,-26.32
5650,767.18,659.19,499.63,0.1597,0.1013,1.1880,-0.878,1.147,-0.553,-7.74,4.89,0.2278,-0.6145,0.7747,-0.279,0.050,-0.045,-12.94,-38.33,1.0665,-0.5734,0.6400,-14.121,-40.783,-8.684,-61.47,-29.21,-0.02,-26.19,-26.16
5675,2256.41,2301.54,2453.04,0.1582,0.1025,1.1873,1.504,0.322,0.455,-7.73,4.93,0.2317,-0.6106,0.7847,1.065,0.081,-0.427,-12.95,-38.30,0.9370,-0.2904,-0.1678,-30.227,-63.729,-51.478,-63.19,-31.76,-0.03,-26.16,-26.13
5690,1660.88,1481.98,1519.85,0.1626,0.1006,1.1853,-0.786,-0.884,-0.034,-7.75,4.92,0.2322,-0.6077,0.7842,-0.721,0.020,0.214,-12.95,-38.30,0.9971,-0.0767,-0.5658,-8.640,-26.477,-45.066,-63.52,-34.69,-0.03,-26.16,-26.13
5714,1149.16,1413.48,1378.02,0.1624,0.1001,1.1814,0.679,-0.823,0.348,-7.77,4.93,0.2263,-0.6147,0.7793,0.393,-0.057,-0.152,-12.95,-38.29,0.9998,0.0657,-0.3110,13.589,64.622,-31.722,-62.13,-30.31,-0.03,-26.06,-26.03
5729,1852.67,2220.15,2281.39,0.1667,0.1006,1.1770,-0.527,0.322,-0.125,-7.77,4.93,0.2319,-0.6091,0.7832,0.989,0.050,-0.259,-12.95,-38.27,1.0492,0.0095,0.1674,21.528,78.897,-13.554,-61.38,-29.33,-0.03,-25.91,-25.88
5754,1006.52,683.37,618.90,0.1592,0.1052,1.1819,0.038,1.238,-0.186,-7.73,4.93,0.2305,-0.6089,0.7725,-0.920,-0.057,0.245,-12.96,-38.29,0.9935,-0.0247,0.7334,-4.350,14.332,-5.722,-60.87,-28.89,-0.03,-25.75,-25.71
5768,772.82,562.49,427.11,0.1599,0.1011,1.1897,-0.420,0.658,-0.064,-7.72,4.92,0.2278,-0.6106,0.7732,-0.034,-0.011,-0.076,-12.96,-38.29,1.0909,0.0018,0.5249,-14.014,-42.737,-2.104,-61.55,-28.50,-0.04,-25.64,-25.60
5793,2373.26,2636.78,2822.93,0.1653,0.1028,1.1902,0.145,-1.067,-0.018,-7.75,4.93,0.2292,-0.6143,0.7817,0.302,-0.072,-0.076,-12.96,-38.28,1.0566,0.0854,-0.1920,-21.220,-62.691,23.804,-63.42,-25.33,-0.04,-25.67,-25.62
5808,2120.22,2104.10,2205.64,0.1614,0.1008,1.1782,-0.619,-1.128,-0.095,-7.77,4.92,0.2302,-0.6155,0.7761,0.332,0.142,-0.137,-12.96,-38.28,1.0403,0.0430,-0.4458,-5.998,-28.416,32.629,-63.89,-21.42,-0.04,-25.72,-25.68
5832,871.14,911.43,824.40,0.1594,0.0994,1.1804,0.389,0.796,0.012,-7.75,4.92,0.2317,-0.6155,0.7788,-0.584,0.142,0.321,-12.96,-38.29,0.9840,-0.2333,-0.1666,10.047,36.713,43.346,-63.20,-23.26,-0.04,-25.73,-25.69
5847,1396.56,1688.28,1708.42,0.1643,0.1001,1.1838,-0.206,1.040,-0.293,-7.74,4.92,0.2261,-0.6143,0.7659,0.134,0.126,0.184,-12.96,-38.30,0.9601,-0.3860,0.1991,6.475,47.232,29.575,-62.57,-23.96,-0.05,-25.69,-25.65
5872,1327.25,1053.26,1021.83,0.1575,0.1003,1.1897,0.435,0.337,0.104,-7.72,4.93,0.2314,-0.6074,0.7791,0.500,0.111,-0.061,-12.96,-38.28,0.9031,-0.4497,0.4174,-4.121,-9.607,-10.425,-62.67,-24.52,-0.05,-25.67,-25.62
5886,878.39,561.68,386.81,0.1611,0.1021,1.1902,0.038,-0.334,-0.003,-7.73,4.93,0.2268,-0.6077,0.7737,-0.706,0.126,0.291,-12.96,-38.29,0.9324,-0.2999,0.2281,-19.800,-27.989,-39.234,-63.18,-25.36,-0.05,-25.68,-25.63
5911,2262.05,2718.97,3064.69,0.1646,0.1025,1.1812,0.298,-0.502,0.134,-7.74,4.94,0.2312,-0.6101,0.7788,0.928,0.325,-0.167,-12.96,-38.26,1.0221,-0.0322,-0.2595,-5.418,-19.455,-45.432,-63.90,-28.45,-0.05,-25.74,-25.68
5925,2342.64,2527.18,2886.59,0.1575,0.1016,1.1753,-0.283,0.551,0.043,-7.73,4.93,0.2314,-0.6006,0.7734,0.485,0.294,-0.061,-12.96,-38.25,1.0557,0.1158,-0.2839,-3.144,17.965,-30.165,-63.84,-24.77,-0.06,-25.79,-25.73
5950,729.30,604.40,374.73,0.1650,0.1040,1.1855,0.221,1.360,-0.018,-7.70,4.94,0.2317,-0.6167,0.7759,-0.004,-0.057,0.443,-12.97,-38.25,1.0631,0.0721,0.1080,9.818,46.835,3.942,-63.09,-23.36,-0.06,-25.79,-25.73
5965,1050.04,1237.00,1175.75,0.1582,0.0989,1.1880,-0.588,0.628,-0.141,-7.69,4.93,0.2324,-0.6118,0.7786,0.454,-0.042,0.184,-12.97,-38.24,1.0432,0.0009,0.3917,7.834,29.064,14.110,-62.80,-22.78,-0.07,-25.77,-25.70
5989,1665.71,1438.46,1488.42,0.1582,0.1055,1.1851,0.206,-0.609,0.180,-7.70,4.93,0.2266,-0.6094,0.7739,-0.004,0.157,-0.030,-12.97,-38.24,1.0210,-0.0854,0.4125,-10.182,-29.882,21.194,-63.62,-22.80,-0.07,-25.80,-25.73
6004,1083.08,690.62,502.05,0.1624,0.0957,1.1816,-0.374,-0.884,0.027,-7.72,4.92,0.2283,-0.6072,0.7668,0.424,-0.301,-0.091,-12.97,-38.24,0.9875,-0.1160,0.1154,-15.540,-51.363,22.690,-64.70,-23.47,-0.07,-25.91,-25.84
6029,1896.19,2412.75,2669.01,0.1611,0.0991,1.1826,0.145,0.215,0.012,-7.71,4.92,0.2263,-0.6169,0.7732,-0.782,0.126,0.245,-12.97,-38.26,0.9938,-0.1309,-0.3129,-8.411,-22.997,24.201,-65.38,-26.35,-0.08,-26.06,-25.98
6043,2419.19,3038.90,3300.00,0.1628,0.0930,1.1860,-0.389,1.025,-0.141,-7.70,4.91,0.2271,-0.6152,0.7844,0.622,0.187,-0.167,-12.96,-38.25,1.0083,-0.2180,-0.3184,3.162,8.912,20.659,-65.33,-28.69,-0.08,-26.20,-26.12
6068,699.49,322.34,0.00,0.1633,0.1057,1.1885,0.114,0.643,-0.080,-7.69,4.92,0.2302,-0.6104,0.7759,-0.294,0.172,0.459,-12.96,-38.26,0.9432,-0.3314,0.0986,11.437,38.026,-0.562,-64.50,-29.31,-0.08,-26.26,-26.18
6083,772.82,713.99,436.78,0.1636,0.0959,1.1914,-0.069,0.170,0.195,-7.69,4.91,0.2317,-0.6140,0.7688,-0.263,0.325,0.306,-12.96,-38.27,0.9662,-0.3459,0.3215,0.002,25.660,-16.440,-64.12,-29.67,-0.09,-26.30,-26.22
6107,2103.30,2127.47,2532.82,0.1536,0.1018,1.1758,0.267,-0.182,-0.049,-7.68,4.92,0.2251,-0.5813,0.7485,0.821,0.096,-0.274,-12.97,-38.24,0.8085,-0.1282,0.4413,-20.334,-21.852,-48.196,-64.58,-29.89,-0.09,-26.37,-26.28
6122,1364.32,972.67,906.59,0.1614,0.1067,1.1797,0.343,-0.105,0.012,-7.69,4.93,0.2178,-0.6042,0.7751,0.256,0.218,-0.290,-12.96,-38.23,0.9839,0.0482,0.2332,-20.777,-49.958,-48.837,-65.53,-29.35,-0.09,-26.50,-26.40
6147,1494.87,1936.48,1976.78,0.1584,0.1008,1.1812,-0.909,0.521,-0.385,-7.67,4.90,0.2341,-0.6091,0.7866,0.424,-0.286,-0.091,-12.97,-38.21,1.0973,0.2837,-0.0720,-28.197,-40.798,0.904,-66.70,-27.36,-0.10,-26.70,-26.60
6161,2225.79,3071.94,3300.00,0.1550,0.1079,1.1921,0.374,1.025,-0.110,-7.65,4.91,0.2329,-0.6042,0.7756,-1.408,0.081,0.413,-12.98,-38.23,1.1383,0.2345,-0.2010,-9.327,-32.722,38.018,-67.34,-24.34,-0.10,-26.94,-26.83
6186,793.77,236.92,0.00,0.1672,0.0974,1.1909,-0.588,-0.914,-0.018,-7.68,4.89,0.2295,-0.6133,0.7832,1.019,-0.011,-0.244,-12.98,-38.20,1.0045,-0.0179,0.0029,2.368,1.629,71.728,-67.73,-25.41,-0.11,-27.18,-27.07
6201,654.36,271.58,0.00,0.1599,0.1028,1.1777,-1.183,-1.357,-0.095,-7.70,4.88,0.2344,-0.6138,0.7793,0.378,-0.164,0.016,-12.98,-38.19,1.0237,-0.2412,0.1315,-3.479,-6.416,78.583,-67.97,-26.18,-0.11,-27.42,-27.31
6225,2424.03,2927.69,3300.00,0.1599,0.1025,1.1777,1.015,0.734,0.165,-7.68,4.91,0.2239,-0.6140,0.7693,-0.294,0.035,0.306,-12.98,-38.21,0.8983,-0.4672,0.1437,-5.067,-26.248,36.843,-68.47,-27.24,-0.11,-27.68,-27.57
6240,1884.10,1740.66,2021.10,0.1633,0.0959,1.1814,-0.725,0.750,-0.202,-7.68,4.89,0.2266,-0.6101,0.7754,1.263,-0.164,-0.213,-12.98,-38.19,0.9718,-0.4915,-0.0494,-6.350,-28.722,5.972,-68.77,-28.70,-0.12,-27.95,-27.83
6265,991.21,1136.26,981.54,0.1589,0.1025,1.1851,0.130,0.292,0.119,-7.67,4.89,0.2266,-0.6106,0.7722,-0.828,0.004,0.428,-12.98,-38.21,0.9869,-0.3927,-0.3489,13.391,-1.958,-33.722,-68.69,-30.43,-0.12,-28.19,-28.07
6279,1677.00,2224.98,2333.77,0.1602,0.1016,1.1890,0.588,-0.075,0.272,-7.67,4.90,0.2246,-0.6135,0.7739,0.408,0.126,-0.076,-12.98,-38.21,1.0339,-0.3977,-0.4070,29.299,12.652,-32.852,-68.35,-32.11,-0.12,-28.39,-28.27
6304,1108.06,606.01,389.23,0.1599,0.1050,1.1804,-0.603,-0.594,-0.156,-7.68,4.89,0.2283,-0.6079,0.7715,-0.782,0.096,0.199,-12.98,-38.23,0.8611,-0.2802,-0.0170,15.315,79.019,-60.180,-66.51,-32.97,-0.13,-28.45,-28.32
6319,734.95,254.65,0.00,0.1606,0.1023,1.1841,0.435,0.200,0.073,-7.68,4.90,0.2280,-0.6133,0.7659,-0.019,0.035,0.016,-12.98,-38.24,0.9362,-0.1733,0.1832,29.864,70.973,-75.478,-65.66,-32.75,-0.13,-28.44,-28.31
6344,2399.85,3146.08,3300.00,0.1599,0.1072,1.1846,-0.527,0.658,-0.324,-7.66,4.89,0.2327,-0.6108,0.7778,0.164,-0.072,0.107,-12.98,-38.23,0.9849,0.1638,0.4661,-6.350,37.080,-56.379,-64.71,-31.86,-0.13,-28.37,-28.24
6358,2309.60,2481.25,3160.59,0.1570,0.1079,1.1846,-0.420,0.490,-0.095,-7.65,4.89,0.2249,-0.6147,0.7739,-0.935,-0.057,0.489,-12.98,-38.25,1.0469,0.2852,0.3037,5.238,7.171,-41.692,-64.68,-30.29,-0.13,-28.30,-28.17
6383,756.70,633.41,340.07,0.1597,0.0979,1.1851,0.481,-0.288,0.058,-7.66,4.90,0.2312,-0.6091,0.7786,1.019,0.096,-0.244,-12.98,-38.22,1.0686,0.3676,0.1187,-22.976,-6.997,13.621,-64.96,-28.80,-0.14,-28.26,-28.12
6398,1147.55,1409.45,1353.85,0.1567,0.1052,1.1814,-1.046,-0.517,-0.354,-7.67,4.89,0.2292,-0.6111,0.7783,-0.538,-0.011,0.291,-12.98,-38.23,1.0942,0.2841,0.0879,10.872,-18.065,42.049,-65.42,-26.61,-0.14,-28.25,-28.11
6422,1527.11,1237.00,1265.20,0.1631,0.1003,1.1843,0.511,0.200,0.088,-7.66,4.90,0.2258,-0.6113,0.7693,0.408,-0.011,-0.244,-12.98,-38.22,1.0038,-0.0138,0.1655,-0.121,-13.271,74.659,-66.05,-26.17,-0.14,-28.28,-28.14
6437,1021.03,600.37,352.16,0.1646,0.0986,1.1858,-0.298,0.460,-0.141,-7.66,4.89,0.2271,-0.6077,0.7739,0.134,0.020,-0.030,-12.98,-38.22,0.9557,-0.2521,0.1368,2.719,-20.539,76.812,-66.49,-26.84,-0.15,-28.35,-28.20
6462,1908.28,2386.96,2678.68,0.1614,0.1040,1.1929,0.236,0.139,0.104,-7.66,4.90,0.2285,-0.6079,0.7786,0.332,0.065,-0.152,-12.98,-38.21,0.8563,-0.4725,0.0157,-5.693,-17.821,33.255,-66.81,-28.21,-0.15,-28.43,-28.28
6477,2389.38,2856.78,3300.00,0.1631,0.0986,1.1865,0.007,-0.090,-0.080,-7.66,4.90,0.2283,-0.6072,0.7771,0.668,0.020,-0.305,-12.98,-38.19,0.9708,-0.4813,-0.1147,-5.617,-12.462,3.728,-66.91,-29.79,-0.15,-28.51,-28.36
6501,736.56,466.59,161.98,0.1599,0.1057,1.1833,0.175,-0.258,-0.095,-7.67,4.91,0.2183,-0.5974,0.7732,-0.401,0.126,0.474,-12.97,-38.19,0.9609,-0.3689,-0.1442,-6.441,15.843,-40.486,-66.54,-31.58,-0.15,-28.56,-28.41
6516,834.07,830.84,634.21,0.1548,0.1030,1.1782,0.023,0.368,0.012,-7.66,4.91,0.2168,-0.6047,0.7732,1.019,0.050,-0.198,-12.96,-38.17,0.9709,-0.2156,-0.0760,0.521,27.171,-56.211,-66.36,-33.13,-0.15,-28.60,-28.45
6541,2015.46,1945.35,2127.47,0.1609,0.1055,1.1929,0.282,0.414,-0.034,-7.65,4.92,0.2241,-0.6128,0.7786,-1.271,0.294,0.413,-12.95,-38.21,1.0316,0.0214,0.1757,-1.540,29.492,-52.913,-65.92,-32.36,-0.15,-28.60,-28.45
6555,1342.56,1055.68,935.60,0.1604,0.1064,1.1843,-0.710,0.154,-0.171,-7.65,4.91,0.2244,-0.6169,0.7764,0.424,-0.347,0.107,-12.95,-38.21,1.0718,0.1327,0.2739,1.024,18.698,-40.959,-65.82,-31.18,-0.15,-28.60,-28.44
6580,1511.79,1869.60,1972.75,0.1592,0.0984,1.1836,0.694,-0.334,0.149,-7.66,4.93,0.2278,-0.6072,0.7742,-0.141,0.142,-0.061,-12.95,-38.21,1.1154,0.2212,0.2406,-6.212,-11.546,1.667,-66.26,-29.86,-0.15,-28.62,-28.47
6594,2212.09,2710.11,3161.39,0.1548,0.1008,1.1819,-0.954,-0.395,-0.125,-7.66,4.91,0.2280,-0.6106,0.7776,-0.447,0.081,-0.061,-12.95,-38.21,1.0674,0.2031,0.1486,-10.151,-16.951,28.507,-66.71,-28.33,-0.15,-28.68,-28.53
6619,842.93,482.71,211.94,0.1609,0.1047,1.1750,0.862,0.231,0.180,-7.65,4.94,0.2236,-0.6101,0.7769,0.271,-0.057,-0.030,-12.95,-38.20,1.0319,-0.0083,0.0168,-6.472,-20.508,57.896,-67.65,-28.45,-0.15,-28.80,-28.65
6634,760.73,605.20,337.66,0.1633,0.0996,1.1802,-0.420,0.490,-0.018,-7.65,4.93,0.2341,-0.6121,0.7751,-0.309,0.126,0.046,-12.95,-38.21,0.9872,-0.1652,-0.0021,-3.586,-13.500,60.217,-68.10,-29.74,-0.15,-28.94,-28.79
6658,2295.09,2436.92,2776.19,0.1594,0.1082,1.1797,0.206,0.078,-0.171,-7.65,4.94,0.2319,-0.6118,0.7788,0.515,-0.026,-0.076,-12.96,-38.20,0.9535,-0.4338,0.0212,-0.304,-7.073,33.072,-68.22,-30.90,-0.15,-29.08,-28.93
6673,1706.81,1552.09,1575.46,0.1602,0.1025,1.1882,0.145,0.170,-0.034,-7.65,4.94,0.2302,-0.6099,0.7771,-0.431,0.020,0.245,-12.96,-38.20,0.9160,-0.4746,0.0282,-6.075,-4.783,8.217,-68.18,-32.10,-0.16,-29.21,-29.05
6698,1134.65,1342.56,1299.85,0.1589,0.1008,1.1819,0.160,-0.350,-0.064,-7.65,4.94,0.2310,-0.6133,0.7744,0.347,0.126,-0.122,-12.96,-38.20,0.9564,-0.3877,-0.0571,-4.915,5.141,-35.157,-68.04,-33.54,-0.16,-29.32,-29.16
6712,1805.13,2256.41,2462.71,0.1575,0.1038,1.1868,-0.374,0.032,-0.049,-7.65,4.94,0.2271,-0.6099,0.7844,0.363,-0.011,-0.167,-12.96,-38.18,0.9755,-0.2260,-0.0583,-4.594,14.897,-50.287,-68.00,-35.03,-0.16,-29.41,-29.26
6737,1052.45,683.37,438.39,0.1584,0.0999,1.1794,0.267,0.337,0.165,-7.64,4.94,0.2280,-0.6140,0.7734,-0.126,-0.042,0.123,-12.96,-38.19,1.0377,0.0134,0.0522,-2.151,27.232,-47.677,-67.72,-34.09,-0.16,-29.49,-29.33
6752,772.82,451.28,130.55,0.1606,0.1006,1.1855,-0.542,0.276,-0.217,-7.64,4.93,0.2288,-0.6079,0.7837,0.393,0.065,-0.152,-12.96,-38.18,1.0498,0.1110,0.1595,1.711,22.148,-35.081,-67.64,-32.69,-0.16,-29.55,-29.39
6777,2351.50,2820.51,3300.00,0.1780,0.1338,1.3469,16.542,115.788,-32.034,-4.82,5.35,0.2190,-0.6084,0.7913,-2.263,1.287,0.459,-12.92,-38.22,1.0774,0.1782,0.2678,-2.731,2.057,0.049,-67.70,-31.43,-0.36,-29.81,-29.45
6791,2195.97,2251.58,2578.75,0.0354,-0.1782,1.5273,-276.237,84.460,-53.118,-3.54,1.17,0.2529,-0.6326,0.7483,-1.256,-4.118,1.649,-13.01,-38.28,1.0708,0.1332,0.2352,-5.724,-13.806,22.644,-68.06,-30.29,-0.63,-30.16,-29.53
6816,834.87,834.07,572.97,-0.2085,0.2295,1.2671,-3.565,-8.777,-32.782,-3.50,1.26,0.1948,-0.5918,0.7825,2.378,-2.759,1.604,-13.04,-38.20,1.0175,-0.0138,0.0741,-3.586,-26.737,46.110,-69.06,-29.98,-0.90,-30.57,-29.67
6830,1313.55,1637.51,1666.52,0.5498,0.1201,1.3440,2.527,-0.869,27.966,-3.89,1.38,0.2263,-0.6221,0.7554,-12.889,-0.484,-1.541,-13.05,-38.41,1.0042,-0.1517,-0.0273,-6.166,-21.714,51.468,-69.62,-31.48,-1.12,-30.95,-29.84
6855,1384.47,1093.55,963.00,0.1084,0.0708,1.1821,-21.443,-0.579,-18.370,-3.93,0.90,0.2949,-0.5981,0.7942,-4.279,8.630,-2.213,-12.91,-38.48,0.9514,-0.3634,-0.0527,0.078,-4.997,31.606,-69.72,-32.81,-1.31,-31.32,-30.01
6870,945.27,536.70,219.19,0.0449,0.0864,1.2102,-1.962,-4.121,-3.255,-3.95,0.93,0.2117,-0.6235,0.7588,-0.981,-0.591,2.825,-12.90,-38.52,0.9479,-0.4274,-0.0146,-0.823,2.530,12.018,-69.61,-34.00,-1.48,-31.65,-30.17
6895,2000.95,2510.26,2904.32,0.1130,0.0369,1.2241,-0.084,1.086,0.119,-3.95,0.95,0.2268,-0.6013,0.7954,2.912,0.874,-2.656,-12.88,-38.41,0.9542,-0.3795,0.0326,-2.624,8.881,-28.577,-69.36,-35.09,-1.64,-31.94,-30.29
6909,2364.40,2760.88,3300.00,0.0139,-0.0266,1.2336,-0.389,18.078,2.760,-3.63,0.90,0.2146,-0.6135,0.7720,-4.706,-1.080,2.229,-12.88,-38.48,0.9825,-0.2671,0.0342,-2.869,10.668,-44.699,-69.31,-36.08,-1.82,-32.23,-30.41
6935,758.32,458.53,91.87,0.1248,-0.0378,1.1504,0.130,-23.128,2.256,-4.24,0.84,0.2202,-0.6106,0.7791,5.324,-1.003,-0.274,-12.90,-38.34,1.0345,-0.0050,0.0535,-3.281,14.668,-45.860,-69.31,-35.55,-1.93,-32.45,-30.52
6949,855.82,863.08,611.65,0.0830,0.2219,1.3950,-45.153,-56.243,25.050,-5.03,0.37,0.2380,-0.6021,0.7820,-0.798,-0.194,-0.534,-12.91,-38.34,1.0527,0.1000,0.0825,-1.815,16.332,-34.241,-69.35,-33.86,-1.99,-32.61,-30.62
6974,2010.62,1983.22,2241.90,0.2559,-0.0601,1.3450,-38.634,-102.227,28.043,-7.63,-0.63,0.2263,-0.6267,0.7568,0.363,0.859,-1.114,-12.89,-38.36,1.0819,0.1691,0.1887,-1.311,7.721,-0.028,-69.31,-32.37,-1.86,-32.57,-30.71
6988,1352.23,1027.47,900.15,0.2314,0.0176,1.3245,-43.870,-120.426,10.913,-9.39,-1.23,0.2419,-0.5991,0.7893,6.729,0.874,-2.748,-12.90,-38.24,1.0629,0.1201,0.2148,-2.670,-3.729,20.644,-69.52,-31.18,-1.62,-32.42,-30.81
7013,1483.59,1856.70,1938.10,0.1797,-0.0310,1.2380,-81.565,-102.395,41.035,-11.86,-3.22,0.2217,-0.6130,0.7720,-3.301,-1.721,1.512,-12.94,-38.32,1.0239,-0.0334,0.1505,-2.701,-22.248,40.491,-70.30,-30.87,-1.22,-32.17,-30.95
7028,2166.15,2731.06,3241.98,0.2207,-0.0527,1.2078,-103.764,-89.220,69.920,-13.11,-4.69,0.2310,-0.6194,0.7690,0.271,-0.271,-1.190,-12.94,-38.33,0.9943,-0.1547,0.0333,-5.525,-24.798,42.843,-70.87,-31.89,-0.76,-31.89,-31.13
7053,872.75,446.45,103.15,0.2202,-0.1409,1.1592,-91.428,-75.907,26.608,-14.90,-6.96,0.2612,-0.5603,0.7764,5.126,4.401,-6.839,-12.88,-38.15,0.9417,-0.2987,-0.0682,-6.472,-9.836,28.598,-71.13,-33.47,-0.21,-31.52,-31.31
7067,732.53,490.77,159.56,0.3403,-0.2683,1.1570,-94.374,-74.166,27.050,-15.99,-8.43,0.1968,-0.6101,0.8147,5.065,-0.606,0.917,-12.85,-38.06,0.9708,-0.3530,-0.0690,-0.273,1.324,10.736,-71.08,-34.82,0.39,-31.09,-31.48
7092,2333.77,2605.35,3270.18,0.2866,-0.2180,1.1863,-116.252,-76.579,13.111,-17.79,-11.29,0.2004,-0.6245,0.7942,7.767,-2.087,1.084,-12.87,-37.87,0.9445,-0.3344,0.0223,-1.983,14.362,-19.692,-70.72,-35.90,1.06,-30.55,-31.61
7107,1822.86,1690.70,1811.58,0.2336,-0.0139,1.2451,-123.367,-80.456,32.669,-18.80,-12.84,0.2341,-0.6152,0.7603,-9.424,-0.026,2.000,-12.88,-38.03,0.9800,-0.2633,0.0713,0.658,14.347,-34.593,-70.59,-36.67,1.76,-29.96,-31.72
7131,1030.70,1196.70,1081.47,0.3772,-0.2178,1.2075,-120.909,-95.006,52.409,-21.07,-15.72,0.1973,-0.6160,0.8013,3.706,3.974,-1.267,-12.75,-37.93,1.0121,-0.0530,0.1060,-4.075,9.217,-40.791,-70.62,-36.56,2.58,-29.26,-31.84
7146,1706.81,2164.54,2316.85,0.3547,-0.3052,1.1084,-129.886,-94.426,55.340,-22.34,-17.57,0.2253,-0.6084,0.7932,-2.187,-1.584,0.245,-12.77,-37.95,1.0608,0.0505,0.0964,-3.632,7.385,-31.295,-70.78,-35.33,3.43,-28.53,-31.96
7171,1121.76,692.23,513.33,0.3574,-0.4424,0.9453,-162.191,-91.433,45.004,-24.49,-21.65,0.2324,-0.6196,0.7632,0.088,-0.423,0.855,-12.79,-37.97,1.0701,0.1390,0.1205,-2.853,3.935,-2.043,-70.88,-33.71,4.37,-27.70,-32.07
7185,773.63,398.90,69.30,0.3167,-0.3320,0.8931,-173.458,-84.166,38.256,-25.57,-24.12,0.2239,-0.6086,0.7773,1.569,-0.271,0.565,-12.80,-37.95,1.0605,0.1127,0.1392,-1.983,0.118,17.407,-71.07,-32.29,5.32,-26.87,-32.19
7210,2386.15,2971.21,3300.00,0.3245,-0.2424,0.9531,-169.596,-69.266,51.829,-27.11,-28.04,0.2188,-0.6060,0.7732,-1.988,-2.072,1.512,-12.84,-38.00,1.0319,-0.0435,0.1497,-2.945,-11.424,37.499,-71.55,-32.04,6.31,-26.03,-32.33
7225,2330.55,2527.99,2901.10,0.3611,-0.4910,0.8252,-154.160,-80.426,39.096,-28.15,-30.34,0.2410,-0.6064,0.7690,-4.966,-3.874,2.367,-12.92,-38.08,0.9965,-0.1521,0.1053,-3.708,-17.103,37.759,-71.96,-32.56,7.29,-25.20,-32.49
7250,733.33,584.25,362.64,0.4973,-0.6978,0.7488,-170.054,-81.663,45.920,-30.10,-34.73,0.2170,-0.6267,0.7642,2.622,-0.790,1.329,-12.93,-38.04,0.9767,-0.2966,-0.0232,-5.235,-15.516,23.697,-72.36,-33.92,8.34,-24.32,-32.66
7264,1090.33,1337.73,1264.40,0.6443,-0.8633,0.7949,-195.458,-78.517,44.623,-31.20,-37.79,0.2268,-0.6104,0.7830,2.821,1.760,-0.809,-12.90,-38.00,0.9575,-0.3242,-0.0665,-4.624,-5.958,8.369,-72.42,-35.34,9.40,-23.43,-32.83
7289,1605.27,1372.38,1405.42,0.2688,-0.3201,0.7656,-242.954,-77.647,62.516,-32.82,-43.39,0.2375,-0.6099,0.7722,-1.592,0.294,-0.076,-12.91,-38.04,0.9749,-0.3046,-0.0411,-2.166,11.904,-17.341,-72.13,-36.64,10.49,-22.47,-32.96
7304,1062.93,630.18,469.01,0.3818,-0.3982,0.8457,-197.458,-48.624,60.745,-33.30,-45.86,0.2341,-0.6101,0.7749,-2.156,-0.561,0.321,-12.92,-38.08,0.9747,-0.2349,0.0287,-1.250,17.706,-28.532,-71.96,-37.59,11.55,-21.53,-33.07
7329,1946.96,2462.71,2635.16,0.6326,-0.8320,0.7717,-127.077,-38.136,10.348,-34.14,-48.97,0.2329,-0.6096,0.7742,2.821,-0.133,-1.068,-12.93,-38.01,1.0164,-0.0819,0.1326,-3.144,15.141,-34.990,-71.78,-37.55,12.58,-20.58,-33.16
7343,2424.84,2991.36,3300.00,0.5415,-0.8857,0.5918,-147.809,-70.930,12.989,-35.02,-51.24,0.2319,-0.6040,0.7729,0.912,0.264,-0.564,-12.94,-38.00,1.0345,0.0146,0.1576,-3.388,7.309,-28.409,-71.86,-36.74,13.61,-19.64,-33.25
7368,706.74,355.38,145.05,0.4768,-0.8008,0.5161,-152.618,-68.640,2.959,-36.52,-55.07,0.2273,-0.6191,0.7686,-2.630,0.294,0.321,-12.93,-38.08,1.0621,0.1077,0.1190,-3.937,-2.142,-5.051,-72.11,-35.26,14.67,-18.68,-33.35
7383,748.64,713.99,550.40,0.4309,-0.6541,0.5315,-161.840,-86.670,24.699,-37.57,-57.30,0.2256,-0.6133,0.7720,1.065,0.020,-0.198,-12.93,-38.07,1.0558,0.0991,0.1005,-3.327,-5.790,13.194,-72.39,-33.71,15.72,-17.74,-33.46
7407,2153.26,2173.41,2313.63,0.4438,-0.7393,0.4263,-145.931,-48.548,47.661,-38.55,-60.90,0.2263,-0.6069,0.7812,0.424,-0.240,0.184,-12.93,-38.06,1.0255,-0.0353,0.0886,-1.861,-7.699,34.033,-72.83,-33.51,16.78,-16.82,-33.60
7422,1461.03,1141.90,1141.90,0.4443,-0.8037,0.3181,-134.725,-31.357,33.004,-38.77,-62.98,0.2268,-0.6152,0.7715,-1.622,-0.118,0.336,-12.94,-38.09,1.0006,-0.1440,0.0896,-1.922,-9.653,36.339,-73.12,-34.03,17.77,-15.98,-33.75
7447,1382.86,1741.47,1766.45,0.4414,-0.8408,0.3086,-116.389,-36.716,15.188,-39.41,-65.95,0.2329,-0.6113,0.7786,0.454,0.126,-0.412,-12.94,-38.08,0.9639,-0.2921,0.0487,-4.212,-10.691,23.117,-73.37,-35.06,18.74,-15.16,-33.90
7461,2114.58,2700.44,2934.95,0.5051,-0.8459,0.3435,-102.542,-46.151,-3.392,-39.86,-67.45,0.2283,-0.6084,0.7783,0.683,-0.164,0.443,-12.94,-38.07,0.9703,-0.3270,-0.0076,-4.197,-8.050,7.255,-73.45,-36.25,19.67,-14.38,-34.05
7486,866.30,442.42,257.88,0.4119,-0.6589,0.3486,-103.275,-57.708,10.440,-41.05,-69.85,0.2312,-0.6104,0.7734,-1.500,-0.103,0.352,-12.95,-38.11,0.9705,-0.2792,-0.0436,-3.098,4.225,-17.325,-73.35,-37.58,20.62,-13.56,-34.18
7501,675.31,376.34,220.00,0.3704,-0.6731,0.3472,-97.931,-67.586,36.073,-41.72,-71.11,0.2280,-0.6147,0.7698,-0.172,0.111,-0.106,-12.95,-38.12,0.9896,-0.2151,-0.0198,-2.365,12.606,-26.867,-73.26,-38.76,21.55,-12.74,-34.29
7526,2440.95,2845.49,3236.34,0.4285,-0.8286,0.2522,-120.802,-89.754,94.669,-43.59,-74.09,0.2285,-0.6096,0.7812,1.034,0.004,-0.213,-12.95,-38.09,1.0112,-0.0746,0.0928,-0.685,17.523,-30.913,-73.03,-38.78,22.55,-11.84,-34.38
7540,2030.77,1972.75,2102.49,0.3765,-0.8005,0.0833,-110.237,-74.136,67.081,-44.29,-75.88,0.2202,-0.6201,0.7649,-2.248,-0.454,0.611,-12.95,-38.14,1.0378,0.0001,0.1492,-2.090,12.942,-24.425,-73.02,-38.03,23.52,-10.95,-34.47
7565,879.19,946.89,823.59,0.2947,-0.8101,0.0144,-49.535,-63.846,36.531,-45.36,-77.35,0.2246,-0.6196,0.7620,2.805,-0.439,-0.503,-12.96,-38.10,1.0642,0.0725,0.1678,-2.548,-3.332,-3.906,-73.25,-36.87,24.50,-10.06,-34.56
7580,1465.86,1859.93,1895.38,0.3352,-0.8411,0.0276,-37.290,-66.746,49.310,-45.85,-78.10,0.1274,-0.6768,0.8154,8.500,-3.355,2.474,-12.89,-38.00,1.0503,0.0520,0.0984,0.215,-13.500,14.980,-73.66,-35.57,25.46,-9.23,-34.68
7605,1261.17,907.40,834.07,0.3171,-0.8997,-0.0085,-31.931,-52.334,49.554,-46.59,-79.12,-0.0190,-0.6101,0.7102,-13.103,4.416,-1.099,-12.50,-38.38,1.0603,-0.0771,-0.0356,8.322,-8.508,29.896,-74.10,-36.95,26.42,-8.43,-34.85
7619,838.10,400.51,219.19,0.3459,-1.0039,-0.1155,-33.657,-38.151,60.562,-46.58,-79.96,0.0291,-0.5562,0.6929,7.920,4.905,-11.664,-12.22,-38.27,1.0038,-0.1993,-0.0314,13.452,-6.600,42.965,-74.28,-38.00,27.34,-7.71,-35.04
7644,2266.89,2875.31,3195.24,0.3389,-0.9597,-0.0149,-57.489,-10.777,58.928,-46.30,-81.58,0.3523,-0.7964,1.0469,4.241,14.157,-16.977,-11.93,-38.15,0.9330,-0.4246,0.0480,10.032,0.683,21.224,-74.09,-38.67,28.19,-7.04,-35.23
7659,2436.92,2779.41,3210.55,0.2847,-0.8809,0.0891,-51.657,-10.182,48.043,-45.88,-82.37,0.2959,-0.4297,0.6963,11.172,11.271,-19.771,-11.92,-37.86,0.9349,-0.4225,0.0403,7.421,8.866,-7.554,-73.79,-39.48,28.95,-6.42,-35.38
7684,657.58,460.15,245.79,0.2996,-0.9573,-0.0613,-7.840,-22.365,12.195,-45.85,-82.79,0.3350,-0.4338,0.6897,12.073,-7.355,-2.290,-12.31,-37.45,1.0166,-0.2677,0.0085,-4.029,3.935,-35.066,-73.72,-40.55,29.63,-5.85,-35.49
7698,918.68,1045.20,936.41,0.2664,-0.9731,-0.1536,13.000,-12.243,0.363,-45.41,-82.93,0.2729,-0.4373,0.7051,12.760,-11.110,3.069,-12.59,-37.15,0.9739,-0.0947,0.0426,11.085,6.912,-41.570,-73.83,-40.90,30.22,-5.36,-35.58
7723,1844.62,1696.34,1773.70,0.2449,-0.9966,-0.1667,30.099,-8.701,3.279,-44.99,-82.53,0.3770,-0.5874,0.7412,4.179,-16.881,7.497,-13.18,-37.08,1.0326,0.0264,0.1061,-13.082,22.912,-33.463,-73.48,-40.12,30.69,-4.90,-35.59
7738,1182.20,778.46,671.28,0.2505,-0.9329,-0.1431,14.511,-2.853,11.325,-44.43,-82.64,0.2827,-0.5293,0.6982,-5.653,-10.790,15.588,-13.43,-37.16,1.0095,0.1505,0.2489,-10.976,20.072,-29.539,-73.20,-38.85,31.07,-4.50,-35.57
7763,1678.61,2129.08,2216.92,0.3240,-1.0439,-0.0549,33.381,15.864,-3.347,-43.50,-82.04,0.1982,-0.5815,0.7053,7.279,-6.759,8.535,-13.57,-37.03,1.0796,0.2146,0.2357,-7.937,7.813,-9.768,-73.01,-37.42,31.35,-4.18,-35.53
7777,2358.75,2988.13,3300.00,0.2549,-0.9702,-0.0264,40.359,22.658,-17.789,-42.60,-81.65,0.2070,-0.6514,0.7405,0.057,-7.690,7.527,-13.65,-37.11,1.0865,0.2344,0.2589,1.528,-22.218,21.072,-73.32,-35.80,31.54,-3.96,-35.50
7802,751.06,332.82,112.01,0.2163,-0.8179,0.0469,58.435,24.093,-20.767,-41.45,-80.33,0.2451,-0.6387,0.7236,-2.905,-3.110,2.642,-13.73,-37.27,1.0162,0.0648,0.0698,-7.418,-23.897,50.690,-74.12,-34.41,31.63,-3.90,-35.53
7817,653.55,498.02,290.11,0.1926,-0.7100,0.1511,97.824,33.330,-23.286,-40.44,-78.88,0.2234,-0.6167,0.7473,7.950,0.172,-1.206,-13.72,-37.20,0.9797,-0.1173,-0.0155,4.307,-22.432,60.720,-74.63,-35.61,31.65,-3.94,-35.59
7842,2359.56,2525.57,2875.31,0.2722,-0.8547,0.1792,297.244,100.261,-70.996,-37.55,-71.65,0.1782,-0.6133,0.7747,-12.019,1.928,-0.320,-13.60,-37.52,0.9355,-0.3772,-0.0059,-7.128,-7.210,40.003,-74.67,-36.89,31.47,-4.19,-35.66
7856,1743.08,1535.16,1614.14,0.3674,-0.9946,0.3223,389.122,165.070,-93.698,-34.80,-66.04,0.2070,-0.6309,0.7834,-2.996,-0.209,-1.282,-13.56,-37.59,0.9259,-0.4624,-0.0184,-0.792,-2.477,17.392,-74.48,-38.01,31.12,-4.60,-35.72
7881,1043.59,1263.59,1191.87,0.5808,-1.4473,0.2192,397.855,129.513,-120.889,-31.38,-56.65,0.2190,-0.5989,0.7795,-3.607,3.928,-0.931,-13.45,-37.67,0.9258,-0.4186,-0.0039,-5.113,8.576,-27.081,-74.10,-39.18,30.55,-5.19,-35.75
7896,1806.74,2328.13,2416.78,0.4133,-1.2053,0.2185,312.725,65.971,-117.896,-30.19,-52.64,0.2363,-0.6196,0.8064,-4.966,10.691,-3.984,-13.29,-37.74,0.9961,-0.2437,0.0072,8.704,13.523,-55.096,-73.94,-40.04,29.96,-5.82,-35.78
7921,1004.91,558.46,399.71,0.3979,-0.8433,0.5984,144.893,81.605,-103.499,-28.02,-49.16,0.2947,-0.5825,0.7798,-6.248,-0.439,-0.351,-13.37,-37.87,1.0244,0.0458,0.0811,-2.976,16.622,-42.638,-73.76,-38.73,29.25,-6.54,-35.78
7935,683.37,250.62,29.82,0.2876,-0.6162,0.6365,150.786,49.773,-101.881,-27.11,-46.90,0.2305,-0.5967,0.7876,1.660,-1.187,5.237,-13.38,-37.84,1.0919,0.1167,0.1211,-14.197,12.713,-22.699,-73.73,-37.28,28.52,-7.27,-35.79
7960,2499.78,3216.19,3300.00,0.3157,-0.4568,0.7676,234.481,94.200,-122.400,-24.67,-40.88,0.2271,-0.5977,0.7881,-0.538,-4.469,2.688,-13.48,-37.84,1.0659,0.1125,0.1635,2.582,-1.424,2.949,-73.88,-35.78,27.67,-8.13,-35.80
7975,2103.30,2150.84,2359.56,0.4253,-0.5652,0.8547,257.855,111.192,-121.148,-23.03,-37.05,0.2346,-0.5928,0.7739,-2.996,-2.347,3.863,-13.52,-37.87,1.0902,0.0848,0.1763,-9.464,-6.813,23.682,-74.09,-34.68,26.76,-9.06,-35.82
7999,1046.01,981.54,896.92,0.7061,-0.8816,1.0122,137.916,63.238,-81.499,-21.59,-33.78,0.2356,-0.6682,0.7764,-2.431,-3.034,1.497,-13.58,-37.99,0.9879,-0.0862,0.1012,3.910,-22.508,31.759,-74.80,-34.70,25.80,-10.08,-35.88
8014,1199.93,1379.63,1185.42,0.5562,-0.6431,0.8906,-4.527,10.551,-46.934,-21.54,-33.88,0.2485,-0.6274,0.7581,3.172,-3.217,1.878,-13.64,-37.97,1.0127,-0.2058,0.0371,-0.976,-20.096,35.209,-75.16,-35.62,24.91,-11.05,-35.96
8039,1423.15,1068.57,1054.87,0.2605,0.0066,0.9521,-5.916,17.666,-52.003,-20.99,-33.34,0.2305,-0.6372,0.8069,7.111,-1.080,1.161,-13.64,-37.81,1.0031,-0.3076,-0.0323,-11.708,-4.279,18.064,-75.22,-37.11,24.04,-12.00,-36.04
8053,891.28,410.99,217.58,0.2334,0.0693,0.9006,84.649,57.040,-68.171,-20.04,-31.37,0.2224,-0.6211,0.7888,3.660,0.340,1.863,-13.61,-37.76,0.9556,-0.2894,-0.0554,0.597,2.866,1.667,-75.13,-38.38,23.17,-12.94,-36.11
8078,2113.77,2726.23,2952.67,0.4446,-0.4514,0.9026,210.175,105.116,-99.408,-17.56,-26.17,0.2031,-0.6128,0.7454,-5.546,-3.614,0.901,-13.67,-37.93,0.9714,-0.2218,0.0238,-4.792,14.393,-17.768,-74.82,-39.40,22.18,-13.97,-36.15
8093,2483.66,3085.64,3300.00,0.4810,-0.5576,0.8457,185.595,112.933,-82.721,-16.08,-23.63,0.2034,-0.6187,0.7800,4.683,-1.629,0.855,-13.65,-37.87,0.9796,-0.2006,0.0845,2.353,13.706,-28.974,-74.68,-39.92,21.16,-15.02,-36.18
8118,653.55,286.08,47.55,0.4106,-0.3730,0.9819,114.053,102.872,-63.362,-13.69,-20.80,0.2517,-0.6138,0.7546,1.523,0.111,0.153,-13.66,-37.86,0.9945,-0.0219,0.1388,-0.563,6.271,-28.852,-74.67,-39.32,20.04,-16.16,-36.20
8132,769.60,760.73,595.53,0.3608,-0.2776,1.0354,97.275,102.307,-58.171,-12.32,-19.29,0.2317,-0.5994,0.7871,-0.019,-1.553,-1.633,-13.68,-37.85,1.0516,0.0312,0.1167,-6.777,4.530,-16.761,-74.78,-38.33,18.90,-17.33,-36.23
8157,2159.71,2132.31,2333.77,0.3276,-0.1582,1.1370,114.740,107.147,-63.484,-9.78,-16.26,0.2158,-0.6260,0.7617,-0.859,-0.240,2.245,-13.66,-37.90,1.0417,0.0713,0.1034,-3.342,0.255,4.797,-74.94,-36.95,17.67,-18.60,-36.27
8172,1382.05,1061.32,997.66,0.3333,-0.0911,1.1760,124.618,114.246,-63.927,-8.26,-14.24,0.2087,-0.6165,0.8013,2.088,-1.996,1.283,-13.64,-37.87,1.0603,0.0515,0.0851,-1.006,-4.218,18.308,-75.20,-35.60,16.41,-19.91,-36.33
8197,1417.51,1805.13,1832.53,0.2988,-0.1880,1.1189,91.336,102.170,-39.392,-5.91,-11.93,0.2400,-0.6001,0.7539,-4.324,-1.095,1.604,-13.68,-37.98,1.0059,-0.0972,0.0916,-2.365,-7.165,30.491,-75.51,-35.88,15.08,-21.32,-36.40
8211,2187.91,2752.01,3050.99,0.4065,-0.2949,1.2200,60.023,89.025,-26.568,-4.88,-11.10,0.2754,-0.6313,0.7769,-1.118,0.539,1.619,-13.70,-38.02,1.0042,-0.1915,0.0769,1.131,-11.821,26.201,-75.74,-36.51,13.77,-22.71,-36.48
8236,821.98,409.38,195.82,0.3020,-0.1790,1.2290,29.015,61.055,-18.461,-3.57,-10.34,0.2202,-0.6196,0.7793,3.844,-1.263,-0.351,-13.71,-37.94,0.9845,-0.2789,0.0057,-5.800,-10.111,12.690,-75.95,-37.70,12.45,-24.11,-36.57
8251,657.58,427.91,195.02,0.1226,0.0046,1.1582,27.076,62.933,-6.125,-2.72,-9.74,0.2249,-0.6169,0.7690,-4.050,-0.255,0.962,-13.70,-38.01,0.9745,-0.2926,-0.0282,-3.678,-3.027,-1.554,-75.94,-38.91,11.17,-25.48,-36.65
8276,1823.66,1793.04,1789.01,0.0669,0.0325,0.9893,18.603,89.101,37.401,-0.58,-9.06,0.2109,-0.6140,0.7820,3.340,-0.439,0.138,-13.67,-37.93,0.9913,-0.2250,-0.0144,-3.861,9.095,-18.135,-75.75,-40.10,9.83,-26.88,-36.72
8290,1743.08,1751.94,1795.46,0.1140,0.0032,1.0574,23.855,103.849,34.333,0.81,-8.53,0.2109,-0.6167,0.7957,-4.355,0.126,3.649,-13.63,-37.99,0.9940,-0.1647,0.0316,-3.831,15.904,-23.814,-75.61,-40.93,8.49,-28.28,-36.77
8315,1214.43,1272.45,1214.43,0.1362,0.0291,1.2275,34.145,108.490,23.905,3.29,-7.50,0.2065,-0.6155,0.7698,0.576,-2.057,1.405,-13.65,-37.99,1.0323,-0.0482,0.1293,-1.769,12.087,-23.890,-75.46,-40.56,7.07,-29.73,-36.81
8329,1475.53,1519.85,1430.40,0.1050,-0.0120,1.2065,42.435,107.757,10.882,4.66,-6.76,0.2163,-0.6040,0.7671,-7.286,-1.782,5.542,-13.65,-38.10,1.0311,0.0170,0.1565,-3.724,5.874,-15.570,-75.49,-39.68,5.66,-31.19,-36.85
8354,1386.89,1403.81,1457.80,0.0488,-0.0503,1.1489,36.572,113.574,-2.980,7.28,-5.79,0.2568,-0.5989,0.7615,-5.286,-0.484,2.978,-13.69,-38.23,1.0555,0.0443,0.1155,-2.090,-5.500,2.323,-75.78,-38.52,4.15,-32.75,-36.90
8369,1220.88,1224.91,1294.21,0.0981,-0.1301,1.2622,28.252,107.742,-8.095,8.58,-5.39,0.2390,-0.6187,0.7695,-0.645,-4.545,5.344,-13.75,-38.25,1.0342,0.0271,0.0859,-4.273,-8.111,16.308,-76.08,-37.46,2.66,-34.31,-36.97
8393,1822.05,1831.72,1764.03,-0.0081,-0.1531,1.2009,7.122,92.307,-9.286,10.65,-5.25,0.2266,-0.6401,0.7393,-6.294,-3.935,4.474,-13.83,-38.46,1.0247,-0.0981,0.0487,-3.602,-6.477,28.354,-76.39,-38.07,1.12,-35.92,-37.04
8408,1841.39,1817.22,1793.85,-0.1138,-0.1997,1.0771,-16.359,98.704,0.959,11.97,-5.59,0.2200,-0.6150,0.7600,8.622,-2.973,0.611,-13.85,-38.34,0.9895,-0.1685,0.0474,-0.472,-6.493,26.156,-76.56,-38.80,-0.41,-37.53,-37.13
8433,1160.44,1199.12,1237.00,-0.0530,-0.0522,1.2710,-39.061,103.284,1.508,14.29,-6.47,0.2312,-0.6548,0.7507,0.225,-0.469,1.970,-13.85,-38.39,0.9810,-0.2711,0.0305,-2.319,-4.707,15.239,-76.63,-39.75,-1.99,-39.19,-37.21
8447,1289.38,1369.96,1324.84,0.0005,-0.0376,1.3904,-18.344,90.276,-16.385,15.29,-6.64,0.2158,-0.6313,0.7708,3.966,0.096,-1.496,-13.81,-38.36,0.9412,-0.2939,0.0138,-2.915,-2.187,-1.112,-76.58,-40.75,-3.52,-40.81,-37.28
8472,1540.00,1534.36,1578.68,-0.1807,-0.2566,1.0637,12.694,89.192,-38.492,17.33,-6.47,0.0916,-0.6479,0.8350,0.134,-1.293,-0.213,-13.67,-38.34,0.9917,-0.1794,0.0140,15.253,1.171,-24.577,-76.62,-41.27,-5.09,-42.45,-37.37
8487,1332.09,1330.48,1405.42,-0.1055,-0.1665,1.1687,-1.061,94.460,-41.133,18.45,-6.52,0.0940,-0.7346,0.9185,-8.676,4.981,-0.610,-13.41,-38.47,1.0133,-0.0931,0.0420,12.551,1.813,-24.745,-76.74,-41.58,-6.60,-44.07,-37.47
8512,1641.54,1677.80,1598.83,-0.2222,-0.0078,1.1956,-2.008,79.971,-34.858,20.23,-6.44,0.1550,-0.4761,0.6902,0.118,1.500,-4.916,-13.32,-38.39,0.9988,-0.0552,0.0175,2.185,6.591,-6.455,-76.78,-42.15,-8.13,-45.70,-37.57
8526,1859.93,1841.39,1797.88,-0.3521,0.0867,1.1589,-7.061,73.513,-5.591,21.23,-6.33,0.3386,-0.7246,0.9641,9.279,-2.774,-0.076,-13.40,-38.23,1.0314,-0.0699,0.0381,19.269,8.210,-5.585,-76.84,-42.25,-9.62,-47.29,-37.67
8551,1187.03,1197.51,1250.70,-0.3208,0.1597,1.2280,4.985,88.689,17.386,23.25,-5.93,0.1440,-0.4700,0.7349,-0.645,-11.095,11.084,-13.59,-38.13,0.9843,-0.0950,0.1321,13.269,6.652,-0.119,-76.75,-41.80,-11.17,-48.91,-37.74
8566,1171.72,1237.00,1232.16,-0.2671,0.0918,1.2705,30.465,88.628,-3.530,24.29,-5.30,0.1331,-0.8198,1.0105,-7.530,-3.950,13.894,-13.49,-38.26,1.0223,-0.1162,0.1055,19.482,-1.806,4.812,-76.87,-41.64,-12.67,-50.49,-37.82
8591,1805.93,1752.75,1754.36,-0.2468,-0.1655,1.1409,31.977,75.055,2.211,25.87,-4.58,0.0422,-0.5017,0.6985,2.210,-8.240,11.084,-13.48,-38.15,1.0125,-0.1212,0.0596,21.147,-11.729,11.667,-77.26,-41.57,-14.18,-52.10,-37.92
8605,1497.29,1469.08,1541.61,-0.2429,-0.2185,1.0564,16.236,73.635,-3.499,26.66,-4.49,0.2080,-0.6519,0.8669,3.080,-7.278,13.176,-13.53,-38.08,1.0491,-0.1785,-0.0099,12.826,-7.149,17.774,-77.43,-42.42,-15.64,-53.67,-38.03
8630,1405.42,1481.17,1410.26,-0.2603,0.0405,1.2852,12.481,58.780,-10.339,27.78,-4.06,0.5437,-1.1633,1.3562,8.302,-16.484,19.649,-14.00,-37.93,1.0327,-0.1694,0.0242,10.475,11.370,0.186,-77.21,-42.95,-17.11,-55.19,-38.08
8645,1681.83,1710.04,1627.84,-0.4104,0.0522,1.1934,25.946,48.032,-6.522,28.31,-3.55,0.3428,-0.4365,0.7261,3.279,-5.904,18.749,-14.25,-37.75,1.0056,-0.1597,0.0665,20.490,3.110,-6.425,-77.23,-43.14,-18.53,-56.64,-38.11
8670,1257.95,1275.68,1344.98,-0.3894,-0.1863,1.0986,29.229,32.872,-0.217,28.92,-2.96,0.2483,-0.4487,0.6565,-0.599,-25.522,29.512,-14.93,-37.69,1.0330,-0.1300,0.1168,11.498,8.057,-7.722,-77.10,-42.96,-19.94,-58.02,-38.08
8684,1145.13,1183.81,1226.52,-0.0974,-0.0918,1.2429,23.183,33.467,-1.515,28.91,-2.66,0.3103,-0.4629,0.6455,10.973,-26.637,28.581,-15.44,-37.49,1.0638,-0.0735,0.1642,-0.151,4.881,-17.615,-77.09,-42.59,-21.29,-59.30,-38.01
8709,1894.58,1853.48,1788.21,-0.3049,-0.0771,1.1711,13.381,22.918,-16.354,29.18,-2.35,0.3457,-0.8137,0.8931,0.454,-13.095,33.970,-15.77,-37.58,1.0231,-0.0516,0.1182,-15.113,1.828,-6.119,-77.16,-42.58,-22.59,-60.52,-37.93
8724,1775.31,1722.12,1743.88,-0.3137,-0.1077,1.1567,5.855,13.299,-22.644,29.09,-2.33,0.3105,-0.4497,0.6238,18.271,-15.248,22.657,-16.11,-37.28,0.9952,0.0328,0.1113,4.826,-6.630,-5.386,-77.38,-41.33,-23.81,-61.67,-37.85
8749,1159.63,1253.11,1254.73,-0.3430,0.0837,1.2332,-19.535,-6.991,-1.545,28.65,-2.68,0.3206,-0.5188,0.5869,14.546,-24.561,26.123,-16.83,-37.01,1.0309,0.0369,0.1155,5.070,-6.493,2.766,-77.66,-40.02,-24.97,-62.72,-37.75
8763,1405.42,1471.50,1405.42,-0.3201,0.0876,1.2739,-13.061,-23.663,3.096,28.02,-2.73,0.3176,-0.7678,0.7461,-2.248,-24.255,29.695,-17.17,-37.22,1.0148,-0.0104,0.1062,-10.624,-4.584,23.484,-77.85,-39.49,-26.03,-63.66,-37.64
8788,1443.30,1419.93,1501.32,-0.3018,-0.0532,1.2212,-16.756,-51.525,17.951,26.48,-3.14,0.1719,-0.7856,0.7051,2.195,-17.767,15.390,-17.45,-37.38,1.0393,-0.1124,0.0901,0.169,-7.653,21.316,-78.12,-39.72,-26.92,-64.46,-37.54
8803,1230.55,1237.00,1327.25,-0.2568,-0.0999,1.1919,-31.641,-71.663,25.539,25.17,-3.62,0.1702,-0.6895,0.6050,-5.653,-6.026,8.901,-17.40,-37.69,0.9572,-0.1873,0.0472,0.398,-8.233,24.888,-78.25,-40.43,-27.65,-65.11,-37.46
8828,1754.36,1780.95,1668.13,-0.1038,-0.1179,1.3459,-53.138,-112.594,22.959,22.02,-4.94,0.2468,-0.7063,0.7568,11.584,9.806,-10.641,-17.08,-37.52,0.9851,-0.2782,0.0240,-2.609,-1.668,12.629,-78.21,-41.39,-28.09,-65.49,-37.40
8842,1895.38,1849.45,1801.10,-0.0940,-0.1135,1.4102,-68.573,-150.579,5.798,19.48,-5.92,0.2444,-0.6428,0.6873,1.737,16.508,-18.320,-16.79,-37.60,1.0021,-0.2598,-0.0006,2.215,3.049,-6.043,-78.11,-42.33,-28.31,-65.67,-37.36
8867,1113.70,1173.33,1211.21,-0.2114,-0.0469,1.4106,-66.084,-207.327,-5.148,14.22,-7.45,0.2439,-0.5974,0.6975,-3.363,14.325,-15.129,-16.40,-37.74,0.9774,-0.1979,0.0245,-3.098,7.507,-14.898,-77.94,-43.22,-28.11,-65.45,-37.34
8882,1148.35,1229.74,1224.91,-0.3721,-0.0042,1.2947,-71.870,-201.785,40.455,11.34,-8.34,0.3477,-0.6050,0.7405,19.233,19.516,-34.885,-16.19,-37.50,1.0040,-0.1492,0.0497,-3.510,5.355,-25.142,-77.92,-43.84,-27.71,-65.04,-37.33
8907,1768.86,1713.26,1743.08,-0.0872,-0.2236,1.1743,-38.786,-180.441,68.073,6.77,-9.34,0.4717,-0.4844,0.5989,-13.301,11.394,-4.198,-16.22,-37.85,1.0635,-0.0547,0.0426,-47.342,10.942,-2.333,-77.82,-45.17,-27.02,-64.33,-37.31
8922,1444.10,1422.34,1491.65,0.0964,-0.2852,1.3140,-18.389,-184.960,28.653,3.89,-9.67,0.5105,-0.7490,0.7834,15.004,-7.477,-9.786,-16.51,-37.75,1.0812,-0.1555,0.0354,-60.563,2.225,15.239,-77.86,-46.68,-26.20,-63.48,-37.28
8946,1446.52,1510.18,1448.94,-0.1511,0.0166,1.3276,-42.649,-207.281,38.485,-1.09,-10.49,0.4163,-0.6104,0.5847,-7.759,-5.843,-4.656,-16.84,-38.11,0.8600,-0.2664,0.1549,-71.128,10.835,2.110,-77.45,-48.67,-25.10,-62.31,-37.20
8961,1751.14,1752.75,1671.36,-0.0989,-0.0769,1.1538,-21.000,-192.090,-16.690,-3.74,-10.66,0.3250,-0.8586,0.8032,-10.691,-0.286,10.245,-16.82,-38.44,0.9039,-0.2024,0.1954,-55.968,13.858,-40.196,-77.15,-49.42,-23.90,-61.01,-37.11
8986,1226.52,1228.94,1320.81,0.1741,-0.1543,1.1760,-40.176,-173.082,-20.064,-8.04,-11.58,0.3479,-1.0862,0.9580,-24.141,10.325,-22.763,-16.50,-39.23,1.0182,0.0536,0.1849,-55.418,-8.081,-35.677,-77.39,-49.46,-22.46,-59.52,-37.06
9000,1146.74,1199.93,1253.92,0.1226,-0.1467,1.1975,-66.084,-165.327,-1.652,-10.36,-12.43,0.2654,-0.6870,0.5823,11.630,36.768,-41.083,-15.97,-39.28,0.9229,0.4275,0.2035,-49.540,3.553,-28.608,-77.05,-47.89,-20.92,-57.95,-37.03
9025,1849.45,1838.97,1806.74,0.2744,-0.0652,1.2778,-82.603,-154.716,19.096,-14.15,-14.25,0.1421,-0.5928,0.5579,-2.370,41.913,-56.931,-14.83,-39.48,1.2006,0.3394,0.3276,-40.579,-27.790,45.453,-77.56,-46.99,-19.15,-56.26,-37.11
9040,1697.95,1656.04,1701.98,0.3328,-0.1333,1.1726,-95.672,-154.029,16.012,-16.40,-15.47,0.1687,-0.6160,0.5989,-24.950,46.081,-55.374,-14.10,-39.97,0.9911,0.0818,0.0730,-42.044,-35.577,47.117,-78.19,-45.69,-17.29,-54.57,-37.28
9065,1199.12,1250.70,1210.40,0.1692,-0.2168,0.9045,-106.664,-144.777,25.859,-19.79,-18.02,-0.0242,-0.5359,0.5679,-29.256,39.989,-70.167,-12.81,-40.74,0.9894,-0.0546,-0.2538,-11.571,-21.241,28.659,-78.65,-48.42,-15.23,-52.80,-37.57
9079,1398.17,1465.86,1353.85,0.2324,-0.2817,0.7773,-74.893,-120.716,6.470,-21.44,-19.13,0.0159,-0.5183,0.6587,8.073,36.279,-74.045,-12.06,-40.58,1.0496,-0.1711,-0.1639,6.246,-2.081,51.468,-78.65,-50.03,-13.14,-51.03,-37.89
9104,1148.35,808.28,660.00,0.3726,-0.5254,0.7747,-29.580,-65.082,-24.156,-23.02,-20.15,-0.0212,-0.6169,0.9775,-18.095,65.103,-71.694,-10.21,-40.85,0.8684,-0.5577,-0.1190,1.406,12.133,46.690,-77.92,-51.04,-10.97,-49.23,-38.26
9119,843.74,548.79,341.68,0.4275,-0.5110,1.9951,-15.046,103.773,-19.973,-21.31,-20.25,0.0427,-0.4111,0.7744,-13.851,58.813,-69.541,-9.22,-40.79,0.9003,-0.5627,0.0250,1.223,18.301,11.606,-77.26,-51.75,-8.99,-47.62,-38.63
9143,1999.34,2204.84,2297.51,0.3831,-0.1504,0.9702,-2.252,-23.647,1.890,-21.88,-20.07,0.1399,-0.5967,1.1650,-13.607,43.928,-61.694,-8.09,-40.85,0.9772,-0.4921,0.0444,-0.838,-1.042,-26.196,-77.00,-52.43,-7.04,-46.07,-39.04
9158,1926.81,1913.92,1921.17,0.3547,-0.2573,0.9670,24.496,-36.670,19.447,-22.36,-19.62,0.1423,-0.5725,1.2002,-5.821,38.355,-46.641,-7.50,-40.63,0.8812,-0.4305,-0.0447,-15.098,-3.821,-41.020,-76.79,-53.52,-5.15,-44.58,-39.44
9183,885.64,765.57,593.92,0.3445,-0.2979,0.7717,48.664,-1.235,-10.767,-22.39,-18.47,0.2212,-0.4158,1.0322,6.042,13.516,-29.374,-7.25,-40.11,1.0046,-0.1547,-0.1090,-1.968,21.797,-69.264,-76.31,-55.00,-3.37,-43.16,-39.80
9198,1181.39,1381.25,1278.10,0.3325,-0.3135,0.7139,62.725,10.826,-21.316,-22.25,-17.67,0.2253,-0.3066,0.9590,5.615,3.729,-9.648,-7.30,-39.58,1.0132,0.0823,0.0198,4.979,32.271,-66.837,-76.03,-52.30,-1.72,-41.83,-40.11
9222,1521.47,1314.36,1302.27,0.3457,-0.2107,0.8733,116.649,34.276,-44.980,-21.40,-14.76,0.2070,-0.3755,0.8308,10.729,-21.522,12.031,-7.94,-39.01,1.0769,0.2091,0.2585,-7.861,28.973,-22.394,-75.26,-50.66,-0.30,-40.60,-40.30
9237,1056.48,731.72,606.81,0.3743,-0.2305,0.8796,135.748,47.070,-64.171,-20.74,-12.81,0.1948,-0.5356,0.9390,-6.355,-21.813,28.107,-8.29,-38.92,1.1034,0.2438,0.3413,1.208,4.240,0.125,-75.08,-48.92,0.95,-39.49,-40.44
9262,1946.96,2371.65,2519.93,0.2683,-0.1604,0.9202,133.320,74.231,-65.026,-18.85,-9.51,0.3191,-1.1169,1.2783,9.431,-33.278,40.107,-9.15,-38.73,1.0469,0.1389,0.2306,-8.044,-29.409,39.743,-75.80,-47.52,1.92,-38.64,-40.56
9276,2350.70,2664.18,3015.53,0.2893,0.1042,0.8579,131.962,90.918,-62.125,-17.54,-7.30,0.1665,-0.5505,0.7642,-10.584,-42.973,46.016,-9.78,-38.82,1.0319,0.0145,0.0743,-7.647,-37.088,58.140,-76.53,-46.46,2.69,-37.99,-40.68
9301,786.52,556.04,322.34,0.3816,-0.0437,1.0681,171.748,96.902,-105.377,-15.23,-3.03,0.1580,-0.4526,0.6741,-5.454,-40.209,41.405,-10.78,-38.86,0.9662,-0.2546,-0.1169,-2.304,-20.065,55.972,-76.97,-47.88,3.18,-37.58,-40.75
9316,871.94,901.76,734.95,0.4207,-0.1172,1.1204,160.969,101.223,-101.331,-13.88,-0.78,0.2458,-0.9084,0.9709,8.989,-43.507,51.985,-11.40,-38.81,0.9553,-0.3970,-0.1151,-1.968,-4.783,43.652,-76.83,-49.07,3.49,-37.28,-40.76
9340,2001.76,1959.85,2086.37,0.3613,-0.0264,1.1455,114.221,98.124,-80.202,-11.57,1.98,0.1694,-0.5430,0.6248,-14.813,-35.416,45.939,-12.26,-39.22,0.9283,-0.5120,0.0116,1.849,11.752,-3.554,-76.23,-49.82,3.55,-37.12,-40.67
9355,1393.33,1139.49,1086.30,0.3125,0.0842,1.1604,55.168,87.269,-38.232,-10.38,2.82,0.2405,-0.7224,0.7283,6.057,-31.110,41.481,-12.73,-39.24,0.9415,-0.4575,0.0500,-2.915,12.622,-31.722,-75.80,-50.54,3.50,-37.03,-40.53
9380,1441.69,1768.06,1805.13,0.2441,0.1841,1.1643,10.756,52.414,-18.843,-9.14,3.20,0.2021,-0.5574,0.6040,13.477,-23.217,35.894,-13.31,-38.98,0.9882,-0.1788,0.0403,-4.899,11.538,-60.990,-75.59,-51.19,3.32,-37.01,-40.34
9395,2050.11,2489.30,2772.16,0.2119,0.3071,1.1746,5.397,61.284,-25.209,-8.27,3.51,0.3020,-0.9272,0.8342,-4.599,-16.805,26.565,-13.56,-39.23,1.0321,0.0095,0.0352,-3.235,13.858,-60.593,-75.64,-49.91,3.08,-37.06,-40.14
9419,902.56,579.41,344.91,0.2454,0.3438,1.3376,28.282,60.628,-30.797,-6.83,4.42,0.1792,-0.6250,0.5735,-3.637,-13.797,14.168,-13.86,-39.48,1.0975,0.2163,0.0980,0.002,16.347,-26.806,-75.29,-47.60,2.73,-37.19,-39.92
9434,759.93,558.46,317.51,0.2175,0.2634,1.2915,20.557,56.093,-17.377,-6.08,4.85,0.2202,-0.7097,0.6472,6.118,-8.225,5.130,-13.96,-39.56,1.0895,0.2354,0.1899,-0.792,12.851,1.407,-75.09,-45.64,2.35,-37.34,-39.69
9459,2326.52,2550.55,2967.18,0.2087,0.0603,1.2122,14.481,46.185,-8.660,-5.03,5.17,0.2092,-0.6960,0.7336,3.401,6.615,-4.839,-13.76,-39.55,1.0629,0.1028,0.2550,-3.846,-11.042,40.766,-75.36,-44.38,1.93,-37.58,-39.51
9473,1881.69,1802.71,1906.67,0.1470,0.0662,1.1438,-2.954,39.238,5.691,-4.51,5.09,0.2068,-0.6201,0.6943,12.592,6.157,-14.717,-13.64,-39.42,1.0157,-0.0260,0.1951,-5.174,-24.600,51.621,-75.79,-43.72,1.52,-37.86,-39.38
9498,989.60,1100.81,988.79,0.0435,0.2317,1.1003,-20.023,28.719,11.966,-3.77,4.74,0.2659,-0.6182,0.7380,-1.912,9.729,-13.099,-13.44,-39.48,0.9834,-0.2522,-0.0234,-5.495,-29.577,48.369,-76.50,-44.88,1.10,-38.23,-39.32
9513,1598.83,1972.75,2096.85,0.0588,0.2263,1.0930,-7.794,35.773,8.379,-3.25,4.77,0.2632,-0.6035,0.7385,5.187,7.638,-17.603,-13.38,-39.40,0.9484,-0.3563,-0.1145,-6.395,-16.951,34.430,-76.58,-46.23,0.67,-38.61,-39.28
9538,1196.70,867.91,693.04,0.0918,0.1245,1.1423,7.733,43.666,-7.454,-2.21,4.98,0.2231,-0.5725,0.7246,-1.698,3.958,-11.496,-13.28,-39.42,0.9415,-0.4357,-0.1093,0.398,9.064,-2.348,-76.12,-47.38,0.21,-39.01,-39.22
9552,843.74,515.75,225.64,0.1445,0.0969,1.2163,3.702,43.147,-11.026,-1.69,5.03,0.2036,-0.6450,0.8557,0.073,3.103,-10.916,-13.19,-39.37,0.9459,-0.3917,-0.0159,-0.090,20.530,-25.615,-75.65,-48.28,-0.25,-39.38,-39.13
9577,2289.45,2722.20,3290.33,0.2354,0.1265,1.3628,2.664,27.712,-15.820,-1.17,5.10,0.2207,-0.5901,0.7666,-3.653,6.355,-6.320,-13.03,-39.42,0.9880,-0.2087,0.1198,-2.655,20.255,-51.554,-75.17,-48.58,-0.70,-39.73,-39.03
9591,2230.62,2349.89,2670.62,0.2087,0.1316,1.3625,-3.977,19.544,-9.820,-1.04,5.05,0.2334,-0.6223,0.8481,9.584,4.554,-6.870,-12.95,-39.22,1.0144,-0.0364,0.1495,-3.495,12.835,-52.455,-75.12,-47.94,-1.13,-40.06,-38.93
9616,787.33,705.93,459.34,0.1443,0.1438,1.3267,-26.435,1.727,3.951,-1.11,4.43,0.2112,-0.5806,0.7749,-4.508,0.874,-1.160,-12.92,-39.28,1.0769,0.1766,0.1086,-5.693,4.668,-26.928,-75.08,-45.95,-1.52,-40.36,-38.84
9631,1165.27,1385.27,1340.95,0.0696,0.1370,1.2476,-42.588,-9.067,14.165,-1.28,3.86,0.2019,-0.6025,0.7903,1.202,0.081,-1.877,-12.89,-39.23,1.0897,0.2188,0.1033,-1.937,1.675,-4.058,-75.11,-43.76,-1.86,-40.63,-38.77
9656,1592.38,1365.13,1368.35,-0.0322,0.1260,1.0889,-44.222,6.170,12.104,-1.07,2.84,0.2224,-0.6318,0.7688,-2.050,1.561,1.039,-12.84,-39.28,1.0616,0.1176,0.1478,-0.976,-4.172,35.530,-75.30,-42.14,-2.20,-40.91,-38.71
9670,1088.72,755.90,528.64,-0.0090,0.0688,1.0815,-35.351,21.238,-2.568,-0.73,2.34,0.2229,-0.6125,0.7676,1.492,-0.881,-1.877,-12.86,-39.24,1.0165,-0.0269,0.1573,-2.212,-11.745,49.591,-75.59,-41.52,-2.53,-41.21,-38.68
9695,1901.83,2316.04,2600.51,0.1238,0.0146,1.2512,-19.183,28.185,-31.515,-0.14,1.84,0.2319,-0.6228,0.7710,-0.630,1.271,0.077,-12.83,-39.25,0.9706,-0.2622,0.0822,-4.869,-21.424,45.026,-76.08,-42.26,-2.88,-41.57,-38.68
9710,2307.99,2693.19,3260.51,0.3142,0.0320,1.4792,-35.641,25.879,-29.530,-0.01,1.32,0.2280,-0.6260,0.7632,1.950,1.653,-0.519,-12.81,-39.23,0.9564,-0.3575,-0.0126,-6.304,-19.806,29.789,-76.23,-43.35,-3.22,-41.92,-38.70
9735,788.94,523.00,219.19,0.1648,0.4231,1.2251,-54.435,-16.273,41.386,-0.55,0.36,0.2485,-0.6252,0.7625,5.798,-0.332,-4.625,-12.85,-39.09,0.9512,-0.3926,-0.1163,-3.540,-2.126,-4.364,-76.09,-44.70,-3.49,-42.20,-38.70
9749,863.88,849.38,654.36,0.0288,0.8813,0.8179,-14.649,1.177,89.630,-0.55,1.08,0.2053,-0.6057,0.7832,10.470,0.752,-1.480,-12.81,-38.91,0.9655,-0.3431,-0.0970,-1.693,13.095,-24.425,-75.78,-45.94,-3.75,-42.43,-38.69
9774,2033.99,1998.53,2162.12,-0.5312,0.4756,-0.2747,-126.008,48.337,80.623,1.51,0.40,0.2686,-0.6055,0.7537,5.950,5.592,-9.679,-12.73,-38.76,0.9835,-0.1793,0.0582,0.704,24.652,-42.547,-75.25,-46.45,-4.12,-42.76,-38.64
9789,1423.96,1178.97,1091.14,-0.0137,-0.4182,1.6963,-1.519,-48.579,118.928,0.79,0.09,0.2871,-0.6223,0.7769,21.508,1.455,-9.847,-12.78,-38.45,1.0242,-0.0713,0.1490,-0.518,22.622,-43.783,-75.03,-46.04,-4.42,-43.00,-38.58
9813,1403.00,1723.74,1764.03,-0.1277,-0.0034,1.0698,-3.015,11.116,-18.186,1.18,0.02,0.1367,-0.6074,0.7527,-4.859,-4.606,3.298,-12.79,-38.58,1.0598,0.1086,0.2062,-4.212,3.981,-26.028,-74.99,-44.66,-4.73,-43.25,-38.52
9829,1818.83,2217.73,2385.35,0.2119,-0.0510,1.1777,0.404,9.757,-11.957,1.10,-0.03,0.1890,-0.6206,0.7437,-2.599,7.623,-6.824,-12.64,-38.64,1.0779,0.1614,0.1531,-5.647,-5.745,-4.119,-75.14,-42.92,-5.00,-43.49,-38.48
9854,1041.98,700.29,537.51,0.1450,0.1069,1.0771,-0.084,-46.243,16.149,-0.19,0.08,0.2419,-0.5991,0.7480,-12.416,8.264,-0.977,-12.47,-38.95,1.0630,0.1050,0.0745,-2.380,-11.867,29.392,-75.59,-41.03,-5.15,-43.65,-38.49
9868,784.91,504.47,297.36,0.2322,-0.0151,1.2246,4.969,9.788,35.004,-0.26,0.14,0.2854,-0.5974,0.7942,13.431,7.409,-9.282,-12.44,-38.71,1.0260,-0.0120,0.0574,-2.518,-10.630,44.049,-75.96,-40.48,-5.28,-43.82,-38.53
9893,2342.64,2677.88,2955.09,-0.0200,-0.0020,0.9526,-0.466,32.429,34.852,0.55,0.12,0.2361,-0.5571,0.7549,-23.042,1.103,1.100,-12.45,-39.23,0.9871,-0.2485,0.0608,-1.831,-10.310,42.323,-76.20,-41.24,-5.46,-44.05,-38.58
9908,2152.45,2146.01,2269.30,0.0088,-0.0447,1.2805,2.908,-12.975,7.264,0.35,0.12,0.2136,-0.6143,0.7681,8.760,-2.774,-1.557,-12.48,-39.09,0.9502,-0.3484,0.0476,-2.258,-10.676,28.904,-76.23,-42.09,-5.62,-44.25,-38.63
9933,813.92,812.31,722.05,0.2434,-0.0325,1.3567,-1.580,-23.220,2.409,-0.43,0.05,0.2202,-0.6133,0.7761,-4.538,0.386,1.756,-12.47,-39.19,0.9564,-0.3873,-0.0276,-5.250,-5.103,-5.753,-76.18,-43.26,-5.71,-44.38,-38.67
9947,1257.95,1537.58,1507.77,0.0557,0.0427,1.2148,-0.267,19.788,-4.919,-0.19,0.09,0.2212,-0.6187,0.7708,1.569,0.096,1.375,-12.48,-39.16,0.9611,-0.3293,-0.0605,-4.334,3.309,-23.524,-76.03,-44.47,-5.81,-44.51,-38.70
9972,1432.01,1182.20,1212.82,0.0249,0.0425,1.1755,0.038,-9.647,5.371,-0.45,0.13,0.2271,-0.6082,0.7805,-1.668,-0.423,-0.045,-12.49,-39.17,0.9967,-0.1555,-0.0160,-2.502,19.919,-39.325,-75.65,-45.56,-5.89,-44.58,-38.70
9986,950.11,687.40,692.23,0.0916,0.0605,1.2261,-0.160,-10.380,-0.828,-0.67,0.18,0.2236,-0.6184,0.7751,0.271,-0.011,0.703,-12.50,-39.16,1.0234,-0.0431,0.0770,-0.685,22.958,-38.150,-75.51,-45.24,-5.94,-44.63,-38.68
10011,2095.24,2421.61,2381.32,0.1160,0.0508,1.2654,0.053,5.421,1.417,-0.63,0.22,0.2356,-0.5984,0.7964,1.309,0.065,-0.045,-12.51,-39.08,1.0530,0.0869,0.2104,-1.189,11.599,-19.997,-75.27,-43.91,-6.00,-44.65,-38.66
10026,2332.16,2492.53,2498.17,-0.0159,0.0430,1.1228,0.084,11.834,-0.996,-0.43,0.26,0.2314,-0.6099,0.7795,-3.927,-0.377,1.619,-12.53,-39.11,1.0621,0.1154,0.2166,-3.876,-1.180,-2.761,-75.32,-42.53,-6.06,-44.70,-38.63
10051,755.09,673.70,682.56,0.0803,0.0417,1.2104,-0.084,-7.785,-0.324,-0.69,0.30,0.2288,-0.6077,0.7764,3.538,0.081,-1.541,-12.54,-39.01,1.0461,0.0635,0.1191,-4.624,-16.936,25.377,-75.88,-41.23,-6.11,-44.76,-38.65
10065,962.20,1100.00,1069.38,0.0767,0.0476,1.1995,0.099,2.490,-0.293,-0.71,0.34,0.2290,-0.5999,0.7922,1.447,0.035,-0.167,-12.55,-38.95,1.0312,-0.0106,0.0529,-4.197,-17.989,36.507,-76.36,-40.69,-6.15,-44.84,-38.69
10090,1843.81,1738.24,1771.28,0.0500,0.0452,1.1780,0.038,4.902,-0.141,-0.63,0.38,0.2258,-0.6145,0.7686,-1.698,-0.118,0.779,-12.56,-38.98,0.9908,-0.2084,-0.0109,-1.907,-9.958,38.888,-76.64,-41.79,-6.20,-44.95,-38.76
10104,1262.78,1021.83,1095.97,0.0466,0.0442,1.1846,-0.008,-5.632,0.027,-0.74,0.41,0.2319,-0.6099,0.7825,0.012,0.020,-0.335,-12.57,-38.96,0.9688,-0.3138,-0.0020,-1.159,-3.943,27.957,-76.60,-42.77,-6.23,-45.04,-38.81
10129,1640.73,1921.17,1865.57,0.0747,0.0520,1.2024,0.145,5.650,-0.690,-0.66,0.46,0.2275,-0.6096,0.7722,2.027,0.004,-0.656,-12.58,-38.90,0.9553,-0.3762,0.0291,-3.311,1.293,-1.967,-76.41,-43.71,-6.27,-45.12,-38.85
10144,2244.32,2460.29,2410.33,0.0789,0.0442,1.2068,0.145,4.597,-0.293,-0.66,0.49,0.2280,-0.6055,0.7832,0.729,0.020,-0.122,-12.59,-38.87,0.9644,-0.3314,0.0220,-3.861,3.950,-21.264,-76.24,-44.62,-6.30,-45.18,-38.87
10169,836.48,659.19,720.44,0.0647,0.0520,1.1897,-0.023,-4.869,0.027,-0.82,0.53,0.2263,-0.6140,0.7639,-2.859,-0.087,0.978,-12.60,-38.93,0.9991,-0.1566,0.0067,-3.708,10.484,-38.135,-76.09,-45.56,-6.33,-45.21,-38.88
10183,766.37,761.54,764.76,0.0889,0.0486,1.2129,-0.099,-6.059,0.302,-0.98,0.56,0.2256,-0.6086,0.7695,2.897,0.035,-1.068,-12.60,-38.88,1.0255,-0.0417,0.0355,-3.082,14.729,-36.486,-76.09,-45.69,-6.34,-45.23,-38.89
10208,2278.17,2269.30,2222.56,0.0564,0.0442,1.1802,0.099,6.780,-0.568,-0.85,0.60,0.2302,-0.5964,0.7917,-1.378,0.065,0.397,-12.61,-38.88,1.0582,0.0875,0.1328,-0.655,13.019,-17.264,-75.88,-44.12,-6.36,-45.24,-38.88
10223,1665.71,1471.50,1540.00,0.0754,0.0498,1.2041,-0.023,-2.121,0.195,-0.93,0.63,0.2234,-0.6138,0.7664,-3.897,-0.164,1.405,-12.62,-38.93,1.0608,0.1011,0.1840,-1.602,6.042,-1.203,-75.85,-42.69,-6.37,-45.24,-38.87
10247,1178.97,1444.10,1396.56,0.0713,0.0444,1.2000,0.053,-5.815,0.058,-1.12,0.66,0.2271,-0.6094,0.7822,2.637,-0.011,-0.931,-12.62,-38.84,1.0463,0.0388,0.1747,-3.663,-11.271,23.621,-76.22,-41.67,-6.37,-45.26,-38.89
10262,1923.59,2222.56,2122.64,0.0691,0.0483,1.2007,0.206,2.719,-0.080,-1.13,0.70,0.2300,-0.6023,0.7852,0.943,0.035,-0.213,-12.63,-38.80,1.0223,-0.0421,0.1095,-4.487,-18.477,32.888,-76.63,-41.32,-6.37,-45.30,-38.93
10287,958.17,714.80,792.16,0.0544,0.0459,1.1873,0.038,2.292,-0.064,-1.10,0.73,0.2307,-0.6101,0.7742,-1.866,0.035,0.413,-12.64,-38.84,0.9895,-0.1995,-0.0212,-4.151,-15.546,33.606,-77.04,-42.52,-6.37,-45.37,-39.00
10301,709.16,547.99,621.32,0.0779,0.0422,1.2046,0.069,-4.075,0.211,-1.21,0.76,0.2280,-0.6116,0.7732,-1.210,-0.072,0.443,-12.65,-38.84,0.9707,-0.2803,-0.0492,-2.258,-7.042,24.217,-77.07,-43.70,-6.37,-45.43,-39.07
10326,2511.06,2655.31,2555.38,0.0781,0.0457,1.2012,-0.069,-0.945,-0.080,-1.28,0.78,0.2280,-0.6030,0.7791,3.141,0.111,-0.961,-12.66,-38.75,0.9626,-0.3424,-0.0107,-1.647,6.210,-0.883,-76.79,-44.70,-6.36,-45.46,-39.11
10341,2155.68,2050.11,2033.99,0.0667,0.0483,1.1951,0.053,4.689,-0.247,-1.26,0.82,0.2344,-0.5994,0.7898,-0.477,0.004,0.123,-12.67,-38.72,0.9691,-0.3197,0.0330,-1.983,9.690,-16.577,-76.55,-45.52,-6.35,-45.48,-39.13
10365,812.31,948.50,938.83,0.0737,0.0461,1.1951,0.038,-1.052,-0.034,-1.33,0.84,0.2261,-0.6191,0.7649,-1.317,-0.011,0.489,-12.67,-38.76,0.9946,-0.1774,0.0703,-3.525,9.965,-34.577,-76.36,-46.06,-6.34,-45.47,-39.13
10380,1481.17,1833.33,1746.30,0.0696,0.0466,1.1985,-0.054,-2.960,0.180,-1.41,0.87,0.2283,-0.6045,0.7778,3.737,0.126,-1.160,-12.68,-38.69,1.0243,-0.0629,0.0754,-4.151,9.049,-34.867,-76.39,-46.00,-6.33,-45.46,-39.14
10405,1214.43,918.68,1020.22,0.0740,0.0483,1.1982,0.160,1.864,-0.018,-1.41,0.90,0.2261,-0.6040,0.7830,-1.897,-0.087,0.749,-12.69,-38.71,1.0524,0.0786,0.0950,-2.502,7.080,-18.043,-76.36,-44.34,-6.31,-45.45,-39.14
10419,713.19,411.79,541.54,0.0579,0.0447,1.1848,0.069,2.719,0.012,-1.40,0.93,0.2271,-0.6147,0.7705,-2.156,-0.072,0.581,-12.69,-38.74,1.0648,0.0995,0.1171,-1.937,4.515,-0.944,-76.40,-42.68,-6.30,-45.45,-39.15
10444,2492.53,2987.33,2720.59,0.0718,0.0479,1.2004,-0.023,-2.227,0.027,-1.49,0.96,0.2256,-0.6099,0.7842,1.599,0.020,-0.503,-12.69,-38.68,1.0424,0.0287,0.1509,-2.060,-4.951,23.896,-76.63,-41.66,-6.29,-45.45,-39.17
10459,2590.04,2720.59,2608.57,0.0764,0.0505,1.2053,-0.023,-1.067,0.027,-1.55,0.99,0.2317,-0.6062,0.7773,1.431,0.035,-0.259,-12.71,-38.65,1.0217,-0.0516,0.1353,-2.976,-11.500,31.743,-76.90,-41.29,-6.27,-45.47,-39.20
10483,543.15,456.92,528.64,0.0569,0.0476,1.1902,0.023,1.116,-0.293,-1.54,1.01,0.3604,-0.7976,0.7266,76.943,2.966,-25.648,-12.75,-36.96,0.9916,-0.2050,0.0453,-4.792,-16.203,30.629,-77.31,-42.13,-6.25,-45.52,-39.27
10498,958.17,1204.76,1169.30,0.0566,0.0476,1.1799,0.053,-2.884,-0.064,-1.61,1.04,0.4897,-0.7822,0.6724,-16.492,0.111,12.474,-13.00,-37.44,0.9738,-0.2719,-0.0188,-4.044,-11.852,20.919,-77.42,-43.22,-6.25,-45.56,-39.31
10523,1689.08,1452.97,1501.32,0.0779,0.0457,1.1995,-0.008,-0.762,-2.171,-1.67,1.06,-0.0073,-0.7415,1.1340,-30.599,0.905,7.390,-12.71,-38.10,0.9733,-0.3113,-0.0500,-2.456,2.622,-1.432,-77.25,-44.40,-6.23,-45.59,-39.36
10537,958.17,556.85,714.80,0.0911,0.0393,1.1980,0.145,0.719,-1.744,-1.71,1.08,-0.1587,-0.7317,0.3730,-17.271,-8.561,0.871,-12.36,-38.85,0.9730,-0.2820,-0.0115,-1.754,10.484,-15.386,-77.03,-45.38,-6.18,-45.60,-39.42
10562,1976.78,2505.42,2313.63,0.0696,0.0271,1.2136,1.076,-2.212,2.867,-1.80,1.11,0.0808,-0.8223,1.1147,-4.187,33.103,-66.015,-11.38,-38.90,1.0017,-0.1677,0.0819,-2.334,14.332,-30.028,-76.73,-45.81,-6.05,-45.58,-39.52
10577,2706.89,3300.00,3043.74,0.0728,0.0344,1.2144,0.114,2.704,-0.171,-1.79,1.12,0.0012,-0.4243,0.7905,-27.653,51.088,-42.580,-10.41,-39.09,1.0164,-0.0747,0.1146,-3.067,10.851,-30.364,-76.69,-45.60,-5.87,-45.56,-39.68
10602,503.66,173.26,306.23,0.0867,0.0427,1.2249,0.007,-1.449,0.134,-1.87,1.14,1.0408,0.0640,1.3416,7.080,4.432,-12.671,-10.85,-38.08,1.0464,0.0507,0.1129,-3.953,2.942,-16.409,-76.75,-44.30,-5.73,-45.53,-39.80
10616,553.63,542.34,610.84,0.0698,0.0664,1.2097,0.252,1.635,1.249,-1.88,1.18,0.1616,-0.8501,0.7063,-11.179,5.592,7.069,-10.72,-38.48,1.0543,0.0820,0.1080,-3.082,-1.027,-3.051,-76.88,-42.72,-5.59,-45.52,-39.93
10641,2496.56,2571.50,2459.49,0.0762,0.0444,1.1987,0.114,0.582,0.027,-1.90,1.20,0.1602,-0.5906,0.8503,-65.897,9.058,16.932,-10.46,-40.02,1.0347,0.0256,0.0973,-2.289,-4.981,21.911,-77.16,-41.62,-5.44,-45.53,-40.09
10656,1599.63,1302.27,1399.78,0.0798,0.0420,1.2097,-0.054,-0.792,-0.797,-1.95,1.22,0.1411,-0.8232,0.6433,-91.958,28.355,21.481,-10.00,-41.58,1.0194,-0.0524,0.0907,-2.029,-7.332,29.606,-77.40,-41.42,-5.26,-45.55,-40.29
10681,1202.34,1593.99,1527.91,0.0728,0.0471,1.2012,-0.008,0.796,-0.141,-1.96,1.24,0.1931,-0.6685,0.7354,-100.874,28.981,19.665,-9.32,-44.04,0.9856,-0.2020,0.0673,-3.205,-10.523,28.491,-77.66,-42.10,-5.05,-45.59,-40.54
10695,2194.36,2838.24,2584.40,0.0793,0.0352,1.2168,-0.038,-0.075,0.073,-1.99,1.25,0.2219,-0.8115,1.0027,-34.523,47.714,-8.427,-8.64,-44.44,0.9795,-0.2717,0.0381,-3.876,-10.157,19.041,-77.74,-42.95,-4.80,-45.63,-40.83
10720,726.89,260.29,408.57,0.0684,0.0466,1.1951,0.130,0.383,0.027,-2.01,1.27,0.2952,-0.8958,0.7456,-71.317,13.699,-2.106,-8.42,-46.29,0.9713,-0.2963,-0.0287,-3.831,-1.775,-2.990,-77.69,-44.10,-4.55,-45.66,-41.10
10734,467.40,139.41,254.65,0.0605,0.0415,1.1785,0.038,1.040,-0.156,-2.01,1.29,0.2605,-0.8765,0.7410,-82.294,-4.469,-22.030,-8.57,-47.53,0.9871,-0.2614,-0.0298,-2.945,6.118,-15.554,-77.55,-45.19,-4.33,-45.67,-41.34
10759,2822.93,3300.00,3069.52,0.0693,0.0474,1.1960,0.038,0.154,-0.080,-2.04,1.31,0.1672,-0.7415,0.6868,-113.469,-22.271,-23.984,-9.13,-50.27,1.0018,-0.1514,0.0421,-1.632,14.668,-27.173,-77.27,-45.81,-4.17,-45.67,-41.50
10774,2204.84,2114.58,2090.40,0.0691,0.0452,1.1929,0.099,0.139,-0.034,-2.06,1.33,0.2000,-0.6655,0.6553,-135.821,-31.538,-24.015,-9.64,-52.12,1.0244,-0.0814,0.0938,-1.937,14.408,-26.867,-77.18,-45.74,-4.05,-45.65,-41.61
10799,653.55,774.43,801.83,0.0940,0.0371,1.2134,-0.160,-0.655,-0.461,-2.12,1.33,0.1240,-0.6162,0.5320,-134.538,-34.988,-25.038,-10.47,-55.34,1.0441,0.0262,0.1471,-3.113,4.301,-14.119,-77.17,-44.70,-3.99,-45.64,-41.65
10813,1494.87,1946.96,1842.20,0.0964,0.0476,1.2366,0.038,1.147,0.211,-2.15,1.35,0.2207,-0.6733,0.5405,-139.469,-30.118,-24.076,-10.98,-57.26,1.0532,0.0503,0.1385,-3.724,-1.852,-2.089,-77.29,-43.46,-3.97,-45.63,-41.66
10838,1168.50,760.73,879.19,0.0745,0.0437,1.2024,0.038,-1.052,0.287,-2.21,1.36,0.2229,-0.7859,0.4749,-145.729,-41.461,-29.725,-12.04,-60.83,1.0420,0.0127,0.0854,-3.602,-8.661,18.858,-77.66,-42.51,-4.02,-45.64,-41.63
10853,918.68,604.40,671.28,0.0811,0.0459,1.2085,0.099,1.986,0.058,-2.21,1.38,0.2073,-0.7925,0.5271,-151.424,-52.683,-23.923,-12.80,-62.89,1.0275,-0.0498,0.0619,-2.670,-9.195,26.995,-77.95,-42.48,-4.12,-45.67,-41.56
10877,1869.60,2136.34,2011.43,0.0662,0.0530,1.1887,0.313,3.834,2.104,-2.14,1.41,0.3396,-0.8313,0.5576,-112.905,-52.332,-9.816,-14.19,-65.50,0.9983,-0.1952,0.0403,-2.838,-6.722,27.026,-78.13,-43.26,-4.31,-45.72,-41.41
10892,2129.89,2307.99,2213.70,0.0713,0.0408,1.2097,-0.023,-0.304,0.043,-2.17,1.42,0.3157,-0.8843,0.4968,-88.599,-50.133,-4.854,-14.96,-66.67,0.9785,-0.2589,0.0365,-2.258,-5.332,18.156,-78.14,-44.07,-4.55,-45.77,-41.22
