timestamp_ms,EMG_Quad_mV,EMG_Ham_mV,EMG_Calf_mV,ACC_Quad_X_g,ACC_Quad_Y_g,ACC_Quad_Z_g,GYR_Quad_X_dps,GYR_Quad_Y_dps,GYR_Quad_Z_dps,Pitch_Quad_deg,Roll_Quad_deg,ACC_Ham_X_g,ACC_Ham_Y_g,ACC_Ham_Z_g,GYR_Ham_X_dps,GYR_Ham_Y_dps,GYR_Ham_Z_dps,Pitch_Ham_deg,Roll_Ham_deg,ACC_Calf_X_g,ACC_Calf_Y_g,ACC_Calf_Z_g,GYR_Calf_X_dps,GYR_Calf_Y_dps,GYR_Calf_Z_dps,Pitch_Calf_deg,Roll_Calf_deg,Angle_Quad_Ham_deg,Angle_Quad_Calf_deg,Angle_Ham_Calf_deg
9,3300.00,3300.00,3300.00,-0.2720,0.8955,0.5806,-3.187,1.651,-0.384,17.41,55.23,0.1145,-0.7878,0.6094,-5.399,-0.082,0.598,-5.91,-53.18,0.0000,0.0000,0.0000,-0.192,-0.455,1.926,-0.23,-0.09,0.12,-1.34,-1.46
23,3300.00,3300.00,3300.00,-0.2778,0.8945,0.5815,-2.546,1.895,0.593,17.38,55.23,0.1082,-0.7876,0.6099,-6.421,1.125,0.186,-5.90,-53.26,0.0000,0.0000,0.0000,-0.192,-0.455,1.926,-0.23,-0.10,0.23,-2.59,-2.83
38,3300.00,3300.00,3300.00,-0.2739,0.9038,0.5781,-3.156,1.758,1.036,17.34,55.23,0.1128,-0.7847,0.6140,-6.116,1.674,-0.211,-5.88,-53.32,0.0000,0.0000,0.0000,-0.192,-0.455,1.926,-0.23,-0.10,0.34,-3.75,-4.09
62,3300.00,3300.00,3300.00,-0.2839,0.8945,0.5837,-1.248,-0.059,0.257,17.29,55.23,0.1069,-0.7827,0.6204,-5.078,0.926,0.323,-5.86,-53.41,0.0000,0.0000,0.0000,-0.192,-0.455,1.926,-0.24,-0.10,0.45,-4.82,-5.27
77,3300.00,3300.00,3300.00,-0.2849,0.8948,0.5852,-1.584,0.063,-0.964,17.25,55.24,0.1067,-0.7917,0.6223,-4.024,1.201,0.140,-5.85,-53.43,0.0000,0.0000,0.0000,-0.192,-0.455,1.926,-0.24,-0.10,0.55,-5.82,-6.37
91,3300.00,3300.00,3300.00,-0.2905,0.8906,0.5984,-3.004,-1.601,-1.453,17.18,55.21,0.0986,-0.7891,0.6230,-4.024,1.277,0.110,-5.83,-53.46,0.0000,0.0000,0.0000,-0.192,-0.455,1.926,-0.24,-0.10,0.66,-6.74,-7.40
116,3300.00,3300.00,3300.00,-0.2834,0.8911,0.5962,-4.653,-2.502,-0.918,17.07,55.12,0.0959,-0.7825,0.6121,-4.040,2.407,-1.005,-5.76,-53.52,0.0000,0.0000,0.0000,-0.192,-0.455,1.926,-0.25,-0.10,0.76,-7.59,-8.36
130,3300.00,3300.00,3300.00,-0.2856,0.8833,0.5789,-2.637,-1.540,-0.216,17.01,55.12,0.0884,-0.7812,0.6128,-5.551,3.293,-1.326,-5.70,-53.57,0.0000,0.0000,0.0000,-0.192,-0.455,1.926,-0.25,-0.10,0.87,-8.38,-9.25
155,3300.00,3300.00,3300.00,-0.2854,0.8792,0.5898,-2.027,2.063,-0.812,17.02,55.09,0.0828,-0.7891,0.6248,-5.261,2.102,-0.226,-5.63,-53.66,0.0000,0.0000,0.0000,-0.192,-0.455,1.926,-0.25,-0.11,0.98,-9.11,-10.09
169,3300.00,3300.00,3300.00,-0.2881,0.8757,0.5974,-1.187,2.384,-1.071,17.02,55.08,0.0837,-0.7915,0.6140,-4.666,1.796,-1.081,-5.59,-53.69,0.0000,0.0000,0.0000,-0.192,-0.455,1.926,-0.25,-0.11,1.08,-9.79,-10.87
194,3300.00,3300.00,3300.00,-0.2896,0.8911,0.6018,0.767,0.246,-0.781,16.99,55.12,0.0791,-0.7861,0.6165,-3.490,1.323,-0.119,-5.54,-53.74,0.0000,0.0000,0.0000,-0.192,-0.455,1.926,-0.26,-0.11,1.18,-10.42,-11.60
208,3300.00,3300.00,3300.00,-0.2910,0.8906,0.5869,1.195,1.559,-0.338,16.98,55.17,0.0808,-0.7815,0.6199,-3.734,0.285,0.415,-5.52,-53.75,0.0000,0.0000,0.0000,-0.192,-0.455,1.926,-0.26,-0.11,1.27,-11.01,-12.28
233,3300.00,3300.00,3300.00,-0.2874,0.8840,0.5840,3.149,5.666,-0.796,17.08,55.27,0.0835,-0.7886,0.6155,-5.154,-0.494,1.529,-5.51,-53.84,0.0000,0.0000,0.0000,-0.192,-0.455,1.926,-0.27,-0.11,1.35,-11.56,-12.92
247,3300.00,3300.00,3300.00,-0.2803,0.8821,0.5911,4.554,7.636,-1.453,17.14,55.35,0.0840,-0.7896,0.6162,-5.002,-1.257,1.438,-5.52,-53.88,0.0000,0.0000,0.0000,-0.192,-0.455,1.926,-0.27,-0.11,1.42,-12.08,-13.51
272,3300.00,3300.00,3300.00,-0.2832,0.8848,0.5864,3.821,6.659,-2.186,17.25,55.47,0.0979,-0.7861,0.6155,-3.811,-0.784,1.606,-5.54,-53.93,0.0000,0.0000,0.0000,-0.192,-0.455,1.926,-0.27,-0.12,1.48,-12.57,-14.05
286,3300.00,3300.00,3300.00,-0.2891,0.8904,0.5884,0.599,7.071,-2.292,17.31,55.50,0.0994,-0.7827,0.6248,-2.834,-0.478,2.308,-5.55,-53.92,0.0000,0.0000,0.0000,-0.192,-0.455,1.926,-0.27,-0.12,1.53,-13.03,-14.56
311,3300.00,3300.00,3300.00,-0.2966,0.9006,0.5845,-1.324,5.697,-1.957,17.41,55.49,0.0969,-0.7783,0.6240,-2.956,-1.227,2.934,-5.58,-53.94,0.0000,0.0000,0.0000,-0.192,-0.455,1.926,-0.28,-0.12,1.57,-13.47,-15.03
325,3300.00,3300.00,3300.00,-0.2903,0.9016,0.5916,-0.973,4.399,-1.025,17.43,55.51,0.1035,-0.7852,0.6216,-2.834,-1.639,3.346,-5.60,-53.93,0.0000,0.0000,0.0000,-0.192,-0.455,1.926,-0.28,-0.12,1.60,-13.87,-15.47
350,3300.00,3300.00,3300.00,-0.2761,0.8906,0.5767,-3.630,4.002,0.440,17.47,55.45,0.1033,-0.7881,0.6047,-1.765,-1.303,2.659,-5.64,-53.94,0.0000,0.0000,0.0000,-0.192,-0.455,1.926,-0.29,-0.12,1.62,-14.26,-15.87
364,3300.00,3300.00,3300.00,-0.2695,0.8950,0.5764,-2.592,5.742,-0.079,17.48,55.45,0.1082,-0.7898,0.6084,-2.360,-1.303,2.903,-5.67,-53.95,0.0000,0.0000,0.0000,-0.192,-0.455,1.926,-0.29,-0.12,1.64,-14.61,-16.25
388,3300.00,3300.00,3300.00,-0.2607,0.8992,0.5620,4.981,10.414,-1.957,17.66,55.62,0.1135,-0.8015,0.6167,-0.650,-1.517,3.468,-5.72,-53.93,0.0000,0.0000,0.0000,-0.192,-0.455,1.926,-0.29,-0.12,1.64,-14.95,-16.59
403,3300.00,3300.00,3300.00,-0.2605,0.9094,0.5703,5.867,13.605,-3.025,17.77,55.75,0.1123,-0.8088,0.6130,-0.223,-3.013,3.560,-5.78,-53.91,0.0000,0.0000,0.0000,-0.192,-0.455,1.926,-0.29,-0.12,1.63,-15.28,-16.91
427,0.00,3300.00,0.00,-0.2661,0.9202,0.5701,10.172,19.040,-2.537,18.15,56.04,0.1182,-0.8062,0.6182,2.586,-7.791,2.888,-5.98,-53.82,0.0000,0.0000,0.0000,-0.192,-0.455,1.926,-0.30,-0.13,1.57,-15.61,-17.19
442,0.00,3300.00,0.00,-0.2520,0.9150,0.5342,13.958,27.086,-2.995,18.43,56.31,0.1121,-0.8162,0.6008,-0.360,-10.005,3.789,-6.13,-53.82,0.0000,0.0000,0.0000,-0.192,-0.455,1.926,-0.30,-0.13,1.50,-15.94,-17.44
456,0.00,0.00,0.00,-0.2532,0.9250,0.5500,17.515,32.918,-1.529,18.79,56.62,0.1262,-0.8110,0.6133,-2.315,-12.188,3.682,-6.32,-53.84,0.0000,0.0000,0.0000,-0.192,-0.455,1.926,-0.30,-0.13,1.39,-16.27,-17.66
481,0.00,0.00,0.00,-0.2734,0.9158,0.5657,19.470,34.185,1.601,19.52,57.12,0.1248,-0.7927,0.6042,-7.124,-13.349,4.125,-6.66,-53.99,0.0000,0.0000,0.0000,-0.192,-0.455,1.926,-0.30,-0.13,1.21,-16.63,-17.84
495,0.00,0.00,0.00,-0.2810,0.9114,0.5693,14.905,28.628,2.272,19.83,57.35,0.1213,-0.7788,0.6140,-7.292,-12.173,4.888,-6.83,-54.04,0.0000,0.0000,0.0000,-0.192,-0.455,1.926,-0.30,-0.13,1.01,-16.98,-17.99
509,0.00,0.00,0.00,-0.2852,0.9165,0.5857,9.271,23.223,3.127,20.05,57.48,0.1191,-0.7769,0.6108,-6.650,-12.082,6.033,-7.01,-54.09,0.0000,0.0000,0.0000,-0.192,-0.455,1.926,-0.30,-0.13,0.80,-17.33,-18.13
534,0.00,0.00,0.00,-0.3062,0.8811,0.5679,10.645,22.323,-0.308,20.51,57.73,0.1055,-0.7947,0.6167,-4.376,-9.914,6.277,-7.22,-54.16,0.0000,0.0000,0.0000,-0.192,-0.455,1.926,-0.31,-0.13,0.55,-17.68,-18.23
548,0.00,0.00,0.00,-0.3171,0.8816,0.5881,13.302,19.941,-3.178,20.71,57.89,0.0991,-0.7917,0.6233,-4.009,-5.746,4.308,-7.27,-54.17,0.0000,0.0000,0.0000,-0.192,-0.455,1.926,-0.31,-0.13,0.31,-18.03,-18.33
562,0.00,0.00,0.00,-0.3118,0.9089,0.5952,9.332,15.681,-2.781,20.84,57.99,0.0837,-0.7825,0.6238,-2.452,-3.501,2.461,-7.27,-54.15,0.0000,0.0000,0.0000,-0.192,-0.455,1.926,-0.31,-0.13,0.07,-18.35,-18.42
587,0.00,0.00,0.00,-0.3264,0.8867,0.5874,5.118,9.498,-2.628,20.99,58.09,0.0784,-0.7988,0.6348,2.235,-1.746,-0.242,-7.26,-54.04,0.0000,0.0000,0.0000,-0.192,-0.455,1.926,-0.31,-0.13,-0.16,-18.67,-18.51
601,0.00,0.00,0.00,-0.3267,0.9021,0.5823,1.225,6.185,-0.674,21.00,58.09,0.0703,-0.8022,0.6423,4.846,0.102,-2.929,-7.19,-53.92,0.0000,0.0000,0.0000,-0.192,-0.455,1.926,-0.31,-0.13,-0.37,-18.97,-18.59
616,0.00,0.00,0.00,-0.3193,0.9092,0.5696,3.210,8.888,-2.689,21.04,58.13,0.0789,-0.8274,0.6497,4.815,-0.555,-3.219,-7.14,-53.81,0.0000,0.0000,0.0000,-0.192,-0.455,1.926,-0.31,-0.13,-0.57,-19.24,-18.68
640,0.00,0.00,0.00,-0.3264,0.9329,0.5652,9.408,12.567,-5.254,21.25,58.37,0.0774,-0.8247,0.6548,2.311,-3.379,-2.822,-7.16,-53.71,0.0000,0.0000,0.0000,-0.192,-0.455,1.926,-0.32,-0.13,-0.76,-19.51,-18.75
654,0.00,0.00,0.00,-0.3411,0.9402,0.5820,9.760,10.384,-2.644,21.31,58.50,0.0796,-0.7986,0.6531,-0.742,-2.387,-1.997,-7.14,-53.66,0.0000,0.0000,0.0000,-0.192,-0.455,1.926,-0.32,-0.13,-0.95,-19.77,-18.82
669,0.00,0.00,0.00,-0.3562,0.9382,0.5647,8.416,7.620,0.013,21.35,58.63,0.0842,-0.7668,0.6528,-2.711,-1.562,-2.929,-7.11,-53.62,0.0000,0.0000,0.0000,-0.192,-0.455,1.926,-0.32,-0.13,-1.12,-20.02,-18.89
693,0.00,0.00,0.00,-0.3613,0.8857,0.5562,0.554,-4.349,4.089,21.20,58.63,0.0869,-0.7197,0.6460,-2.971,-1.074,-3.631,-7.10,-53.58,0.0000,0.0000,0.0000,-0.192,-0.455,1.926,-0.32,-0.14,-1.27,-20.23,-18.96
708,0.00,0.00,0.00,-0.3508,0.8540,0.5337,-2.714,-7.540,4.257,21.06,58.58,0.0911,-0.7021,0.6296,-1.612,0.285,-5.112,-7.06,-53.49,0.0000,0.0000,0.0000,-0.192,-0.455,1.926,-0.32,-0.14,-1.40,-20.42,-19.02
722,0.00,0.00,0.00,-0.3398,0.8396,0.5088,-3.813,-12.120,4.135,20.85,58.53,0.1091,-0.6868,0.6074,-1.612,2.743,-5.829,-7.02,-53.41,0.0000,0.0000,0.0000,-0.192,-0.455,1.926,-0.32,-0.14,-1.50,-20.58,-19.08
746,0.00,0.00,0.00,-0.2849,0.8345,0.4941,-3.737,-9.738,0.196,20.52,58.45,0.1221,-0.7129,0.5911,-6.147,7.399,-4.944,-6.85,-53.50,0.0000,0.0000,0.0000,-0.192,-0.455,1.926,-0.33,-0.14,-1.56,-20.71,-19.15
761,0.00,0.00,0.00,-0.2793,0.8359,0.4822,-4.851,-8.761,-3.499,20.31,58.42,0.1165,-0.7197,0.5918,-6.437,8.086,-4.089,-6.74,-53.53,0.0000,0.0000,0.0000,-0.192,-0.455,1.926,-0.33,-0.14,-1.60,-20.82,-19.22
775,0.00,0.00,0.00,-0.2715,0.8391,0.4988,-5.065,-5.845,-6.857,20.14,58.36,0.1069,-0.7358,0.5896,-6.024,8.086,-1.738,-6.62,-53.57,0.0000,0.0000,0.0000,-0.192,-0.455,1.926,-0.33,-0.14,-1.60,-20.90,-19.30
800,0.00,0.00,0.00,-0.3394,0.8755,0.5493,-0.256,-2.074,-9.834,20.05,58.35,0.0566,-0.7605,0.6589,-5.566,8.728,0.232,-6.35,-53.62,0.0000,0.0000,0.0000,-0.192,-0.455,1.926,-0.33,-0.14,-1.59,-20.97,-19.39
814,0.00,0.00,0.00,-0.3608,0.9331,0.5906,0.126,-1.906,-10.323,19.98,58.34,0.0613,-0.8093,0.6694,-4.666,10.086,0.827,-6.15,-53.62,0.0000,0.0000,0.0000,-0.192,-0.455,1.926,-0.33,-0.14,-1.55,-21.04,-19.48
828,0.00,0.00,0.00,-0.3394,0.9814,0.6238,1.500,-4.135,-10.063,19.85,58.34,0.0935,-0.8318,0.6633,-2.360,11.720,0.949,-5.96,-53.61,0.0000,0.0000,0.0000,-0.192,-0.455,1.926,-0.33,-0.14,-1.50,-21.09,-19.59
853,0.00,0.00,0.00,-0.2852,0.9417,0.6006,-8.958,-11.891,-1.560,19.45,58.11,0.0859,-0.8164,0.6167,0.052,3.903,1.255,-5.84,-53.59,0.0000,0.0000,0.0000,-0.192,-0.455,1.926,-0.34,-0.14,-1.41,-21.11,-19.69
867,0.00,0.00,0.00,-0.2986,0.8762,0.5659,-11.019,-12.807,2.883,19.20,57.93,0.0737,-0.7852,0.6106,-3.307,0.758,-1.417,-5.80,-53.61,0.0000,0.0000,0.0000,-0.192,-0.455,1.926,-0.34,-0.14,-1.31,-21.11,-19.79
881,0.00,0.00,0.00,-0.3059,0.8542,0.5391,-6.011,-8.670,2.242,19.03,57.85,0.0779,-0.7742,0.6074,-6.162,2.514,-3.203,-5.74,-53.66,0.0000,0.0000,0.0000,-0.192,-0.455,1.926,-0.34,-0.14,-1.20,-21.09,-19.89
906,0.00,0.00,0.00,-0.2920,0.8882,0.5652,-0.530,1.147,-2.583,18.99,57.83,0.0874,-0.7883,0.6150,-7.124,6.987,0.797,-5.55,-53.80,0.0000,0.0000,0.0000,-0.192,-0.455,1.926,-0.34,-0.14,-1.09,-21.08,-19.99
920,0.00,0.00,0.00,-0.2834,0.9082,0.5789,-4.363,1.193,-2.873,18.92,57.76,0.0911,-0.7876,0.6133,-5.811,6.025,1.850,-5.46,-53.85,0.0000,0.0000,0.0000,-0.192,-0.455,1.926,-0.34,-0.14,-0.96,-21.06,-20.10
935,0.00,0.00,0.00,-0.2896,0.9060,0.5837,-5.920,0.185,-1.392,18.85,57.66,0.0818,-0.7886,0.6123,-3.658,3.827,2.476,-5.39,-53.87,0.0000,0.0000,0.0000,-0.192,-0.455,1.926,-0.34,-0.14,-0.84,-21.04,-20.20
959,0.00,0.00,0.00,-0.3018,0.8884,0.5771,-5.843,-1.509,1.311,18.75,57.51,0.0767,-0.7893,0.6196,-2.940,1.796,1.697,-5.33,-53.90,0.0000,0.0000,0.0000,-0.192,-0.455,1.926,-0.34,-0.14,-0.72,-21.01,-20.30
974,0.00,0.00,0.00,-0.3047,0.8853,0.5776,-4.500,-0.731,0.853,18.69,57.43,0.0793,-0.7971,0.6211,-1.429,2.010,1.652,-5.28,-53.88,0.0000,0.0000,0.0000,-0.192,-0.455,1.926,-0.34,-0.14,-0.59,-20.98,-20.39
988,0.00,0.00,0.00,-0.3069,0.8872,0.5781,-4.515,1.727,0.883,18.66,57.36,0.0894,-0.7922,0.6199,-1.047,2.560,-0.745,-5.24,-53.86,0.0000,0.0000,0.0000,-0.192,-0.455,1.926,-0.34,-0.14,-0.47,-20.96,-20.48
1013,0.00,0.00,0.00,-0.2930,0.8950,0.5723,-6.927,1.727,1.952,18.64,57.19,0.0923,-0.7883,0.6140,-1.169,1.842,-1.188,-5.20,-53.85,0.0000,0.0000,0.0000,-0.192,-0.455,1.926,-0.35,-0.15,-0.36,-20.93,-20.57
1027,0.00,0.00,0.00,-0.2861,0.8994,0.5789,-7.874,1.407,2.364,18.59,57.08,0.0969,-0.7896,0.6055,-2.330,2.331,0.293,-5.18,-53.86,0.0000,0.0000,0.0000,-0.192,-0.455,1.926,-0.35,-0.15,-0.24,-20.90,-20.65
1041,0.00,0.00,0.00,-0.2866,0.8940,0.5713,-7.706,0.506,2.333,18.52,56.98,0.0933,-0.7888,0.6204,-2.086,2.025,1.132,-5.15,-53.84,0.0000,0.0000,0.0000,-0.192,-0.455,1.926,-0.35,-0.15,-0.13,-20.86,-20.73
1066,0.00,0.00,0.00,-0.2812,0.9016,0.5720,-7.737,1.849,3.372,18.49,56.81,0.0857,-0.7913,0.6223,-0.528,-1.043,1.377,-5.17,-53.82,0.0000,0.0000,0.0000,-0.192,-0.455,1.926,-0.35,-0.15,-0.03,-20.83,-20.81
1080,0.00,0.00,0.00,-0.2874,0.8994,0.5762,-6.347,3.040,4.043,18.47,56.73,0.0886,-0.7849,0.6187,0.205,-2.753,0.980,-5.21,-53.77,0.0000,0.0000,0.0000,-0.192,-0.455,1.926,-0.35,-0.15,0.07,-20.80,-20.87
1095,0.00,0.00,0.00,-0.2844,0.9021,0.5615,-6.561,4.414,5.295,18.46,56.66,0.0957,-0.7837,0.6177,0.189,-3.364,1.377,-5.26,-53.73,0.0000,0.0000,0.0000,-0.192,-0.455,1.926,-0.35,-0.15,0.16,-20.77,-20.93
1119,0.00,0.00,0.00,-0.2942,0.8962,0.5535,-4.592,5.055,5.433,18.52,56.59,0.1042,-0.7803,0.6230,-1.658,-4.341,1.652,-5.38,-53.72,0.0000,0.0000,0.0000,-0.192,-0.455,1.926,-0.35,-0.15,0.22,-20.75,-20.97
1133,0.00,0.00,0.00,-0.3018,0.8879,0.5542,-4.485,4.536,5.005,18.54,56.55,0.0728,-0.7637,0.6218,-7.200,-3.486,2.507,-5.40,-53.77,0.0000,0.0000,0.0000,-0.192,-0.455,1.926,-0.35,-0.15,0.28,-20.73,-21.01
1148,0.00,0.00,0.00,-0.3003,0.8962,0.5623,-4.149,7.315,4.379,18.59,56.52,0.1106,-0.7820,0.6370,-12.696,10.941,4.003,-5.27,-53.89,0.0000,0.0000,0.0000,-0.192,-0.455,1.926,-0.35,-0.15,0.35,-20.71,-21.06
1172,1656.04,0.00,3300.00,-0.2922,0.8955,0.5645,-0.408,4.796,2.395,18.64,56.54,0.1003,-0.8027,0.6006,-20.269,14.972,-0.532,-4.91,-54.36,0.0000,0.0000,0.0000,-0.192,-0.455,1.926,-0.35,-0.15,0.43,-20.70,-21.13
1187,1981.61,0.00,3300.00,-0.2888,0.9038,0.5605,-1.691,5.300,2.959,18.64,56.55,0.1152,-0.7629,0.6477,-4.147,2.896,-5.127,-4.91,-54.32,0.0000,0.0000,0.0000,-0.192,-0.455,1.926,-0.35,-0.15,0.50,-20.69,-21.19
1211,0.00,0.00,0.00,-0.2974,0.9155,0.5601,-4.775,3.987,3.127,18.68,56.47,0.1084,-0.7710,0.6328,2.495,-5.257,-1.890,-5.06,-54.19,0.0000,0.0000,0.0000,-0.192,-0.455,1.926,-0.36,-0.15,0.55,-20.69,-21.24
1226,0.00,0.00,0.00,-0.3049,0.9099,0.5598,-6.042,2.552,2.837,18.66,56.43,0.1145,-0.7678,0.6279,2.540,-5.410,-1.051,-5.17,-54.09,0.0000,0.0000,0.0000,-0.192,-0.455,1.926,-0.36,-0.15,0.60,-20.68,-21.28
1240,0.00,0.00,3300.00,-0.3105,0.9077,0.5664,-6.775,0.918,3.585,18.62,56.36,0.1108,-0.7681,0.6340,2.220,-4.204,-0.379,-5.25,-53.98,0.0000,0.0000,0.0000,-0.192,-0.455,1.926,-0.36,-0.15,0.64,-20.67,-21.31
1264,0.00,0.00,0.00,-0.3159,0.9048,0.5603,-7.187,-0.013,3.998,18.58,56.23,0.0967,-0.7642,0.6416,1.014,-4.249,-1.493,-5.36,-53.88,0.0000,0.0000,0.0000,-0.192,-0.455,1.926,-0.36,-0.15,0.67,-20.66,-21.33
1279,0.00,0.00,0.00,-0.3123,0.9028,0.5654,-7.019,0.063,3.860,18.54,56.16,0.1018,-0.7747,0.6331,-2.971,-0.616,-2.028,-5.37,-53.86,0.0000,0.0000,0.0000,-0.192,-0.455,1.926,-0.36,-0.15,0.70,-20.64,-21.34
1293,0.00,0.00,0.00,-0.3066,0.8982,0.5728,-8.271,-1.601,4.059,18.46,56.07,0.1030,-0.7795,0.6313,-6.330,3.231,-1.692,-5.34,-53.89,0.0000,0.0000,0.0000,-0.192,-0.455,1.926,-0.36,-0.15,0.74,-20.63,-21.36
1318,0.00,0.00,0.00,-0.3230,0.8931,0.5701,-8.149,-2.975,3.097,18.36,55.90,0.0894,-0.7656,0.6548,-4.986,5.522,-2.242,-5.20,-53.92,0.0000,0.0000,0.0000,-0.192,-0.455,1.926,-0.36,-0.15,0.79,-20.60,-21.39
1332,0.00,0.00,0.00,-0.3176,0.8953,0.5615,-7.782,-2.502,2.318,18.29,55.83,0.0869,-0.7617,0.6384,-2.452,4.590,-2.135,-5.13,-53.88,0.0000,0.0000,0.0000,-0.192,-0.455,1.926,-0.36,-0.15,0.85,-20.58,-21.42
1346,0.00,0.00,0.00,-0.3115,0.8965,0.5625,-7.492,-0.425,1.021,18.25,55.77,0.0911,-0.7625,0.6409,-3.444,5.445,-0.745,-5.06,-53.85,0.0000,0.0000,0.0000,-0.192,-0.455,1.926,-0.36,-0.15,0.91,-20.55,-21.45
1371,0.00,0.00,0.00,-0.3074,0.8972,0.5630,-4.851,0.765,0.944,18.23,55.70,0.0891,-0.7585,0.6306,-10.421,8.819,2.079,-4.85,-54.02,0.0000,0.0000,0.0000,-0.192,-0.455,1.926,-0.36,-0.15,0.98,-20.52,-21.50
1385,0.00,0.00,0.00,-0.3044,0.8977,0.5603,-6.271,1.071,1.433,18.20,55.66,0.0920,-0.7668,0.6350,-12.696,9.644,3.377,-4.72,-54.13,0.0000,0.0000,0.0000,-0.192,-0.455,1.926,-0.36,-0.15,1.06,-20.49,-21.55
1400,0.00,0.00,720.44,-0.3071,0.8979,0.5728,-7.889,1.071,1.646,18.17,55.58,0.0867,-0.7717,0.6401,-15.734,10.911,4.201,-4.57,-54.27,0.0000,0.0000,0.0000,-0.192,-0.455,1.926,-0.36,-0.15,1.14,-20.47,-21.61
1424,3300.00,0.00,3300.00,-0.2954,0.8447,0.5774,-1.935,1.529,-0.476,18.17,55.54,0.0925,-0.8223,0.6807,-22.620,53.980,-13.738,-3.28,-54.74,0.0000,0.0000,0.0000,-0.192,-0.455,1.926,-0.37,-0.15,1.31,-20.44,-21.75
1438,3300.00,0.00,3300.00,-0.2913,0.8909,0.5786,1.256,2.720,-1.865,18.15,55.58,0.0806,-0.7246,0.6787,-8.070,8.209,-8.761,-3.19,-54.70,0.0000,0.0000,0.0000,-0.192,-0.455,1.926,-0.37,-0.15,1.48,-20.41,-21.89
1463,3300.00,0.00,3300.00,-0.2874,0.9187,0.5750,-8.179,-1.143,-0.842,18.06,55.43,0.0774,-0.8340,0.6787,6.143,-15.654,3.423,-3.59,-54.47,0.0000,0.0000,0.0000,-0.192,-0.455,1.926,-0.37,-0.16,1.61,-20.38,-22.00
1477,3300.00,0.00,3300.00,-0.2690,0.9080,0.5686,-7.385,-1.769,-0.201,17.95,55.38,0.1082,-0.7922,0.5874,-5.368,-3.410,6.232,-3.69,-54.53,0.0000,0.0000,0.0000,-0.192,-0.455,1.926,-0.37,-0.16,1.74,-20.35,-22.09
1502,3300.00,0.00,3300.00,-0.2522,0.9011,0.5759,-5.019,-2.242,0.898,17.80,55.30,0.1235,-0.7891,0.6084,-7.597,-6.845,5.606,-3.92,-54.67,0.0000,0.0000,0.0000,-0.192,-0.455,1.926,-0.37,-0.16,1.85,-20.31,-22.15
1516,3300.00,0.00,3300.00,-0.2549,0.8938,0.5618,-4.729,-1.280,0.135,17.70,55.28,0.1182,-0.8049,0.6096,-5.994,-10.784,5.392,-4.13,-54.71,0.0000,0.0000,0.0000,-0.192,-0.455,1.926,-0.37,-0.16,1.94,-20.26,-22.20
1540,3300.00,0.00,3300.00,-0.2666,0.8962,0.5837,-2.240,1.727,-1.376,17.67,55.26,0.1179,-0.8137,0.6184,0.800,-11.196,1.102,-4.44,-54.66,0.0000,0.0000,0.0000,-0.192,-0.455,1.926,-0.37,-0.16,2.01,-20.21,-22.22
1555,3300.00,0.00,3300.00,-0.2764,0.9004,0.5881,-1.248,1.025,-1.468,17.62,55.28,0.1094,-0.7996,0.6174,6.281,-11.715,-2.669,-4.64,-54.52,0.0000,0.0000,0.0000,-0.192,-0.455,1.926,-0.37,-0.16,2.06,-20.17,-22.23
1579,3300.00,0.00,3300.00,-0.2805,0.9097,0.5791,0.233,0.368,1.387,17.57,55.33,0.1072,-0.7747,0.6028,-0.879,0.605,0.461,-4.66,-54.49,0.0000,0.0000,0.0000,-0.192,-0.455,1.926,-0.38,-0.16,2.11,-20.12,-22.24
1594,3300.00,0.00,3300.00,-0.2722,0.9058,0.5808,-0.515,-0.135,2.425,17.50,55.36,0.1079,-0.7825,0.6064,-1.628,-1.181,0.186,-4.71,-54.47,0.0000,0.0000,0.0000,-0.192,-0.455,1.926,-0.38,-0.16,2.16,-20.07,-22.24
1608,3300.00,0.00,3300.00,-0.2712,0.8923,0.5703,0.096,0.063,2.532,17.44,55.40,0.1108,-0.7810,0.6072,-3.536,-0.814,1.041,-4.75,-54.47,0.0000,0.0000,0.0000,-0.192,-0.455,1.926,-0.37,-0.16,2.21,-20.03,-22.24
1633,3300.00,0.00,3300.00,-0.2944,0.8962,0.5708,1.561,1.865,0.440,17.44,55.48,0.1086,-0.7781,0.6296,-6.498,1.445,1.438,-4.75,-54.56,0.0000,0.0000,0.0000,-0.192,-0.455,1.926,-0.38,-0.16,2.25,-19.98,-22.24
1647,3300.00,0.00,3300.00,-0.3105,0.8970,0.5706,3.256,3.712,-0.766,17.47,55.57,0.0901,-0.7773,0.6331,-7.215,1.338,0.980,-4.74,-54.59,0.0000,0.0000,0.0000,-0.192,-0.455,1.926,-0.38,-0.16,2.29,-19.94,-22.24
1661,3300.00,3300.00,3300.00,-0.2820,0.8113,0.5991,14.279,9.605,-3.834,17.57,55.73,0.0974,-0.7268,0.8987,-16.376,40.651,-7.463,-4.17,-54.51,0.0000,0.0000,0.0000,-0.192,-0.455,1.926,-0.38,-0.16,2.36,-19.91,-22.27
1686,3300.00,0.00,3300.00,-0.2947,0.9241,0.6116,5.225,1.025,-1.972,17.54,55.87,0.0874,-0.7378,0.6240,1.701,0.224,-4.471,-4.18,-54.37,0.0000,0.0000,0.0000,-0.192,-0.455,1.926,-0.38,-0.16,2.43,-19.88,-22.31
1700,3300.00,0.00,3300.00,-0.2839,0.9131,0.5862,0.263,-1.326,0.089,17.46,55.90,0.0847,-0.7854,0.6030,-5.444,4.331,-0.486,-4.13,-54.41,0.0000,0.0000,0.0000,-0.192,-0.455,1.926,-0.38,-0.16,2.50,-19.85,-22.35
1725,3300.00,0.00,3300.00,-0.2642,0.8816,0.5771,3.012,-3.036,1.540,17.32,55.99,0.0981,-0.7991,0.5896,-4.650,3.369,2.445,-4.08,-54.51,0.0000,0.0000,0.0000,-0.192,-0.455,1.926,-0.38,-0.16,2.58,-19.81,-22.39
1739,3300.00,3258.10,3300.00,-0.2563,0.8645,0.5737,4.294,-1.128,-0.338,17.24,56.06,0.1035,-0.8132,0.6013,-5.429,4.865,0.140,-4.05,-54.56,0.0000,0.0000,0.0000,-0.192,-0.455,1.926,-0.38,-0.16,2.66,-19.76,-22.42
1764,3300.00,0.00,3300.00,-0.2717,0.8743,0.5808,1.118,1.101,-3.285,17.21,56.10,0.0898,-0.8015,0.6196,-3.368,-3.074,-0.074,-4.14,-54.60,0.0000,0.0000,0.0000,-0.192,-0.455,1.926,-0.38,-0.16,2.73,-19.72,-22.45
1778,3300.00,0.00,3300.00,-0.2832,0.8777,0.5681,2.599,1.819,-5.132,17.19,56.15,0.0896,-0.7959,0.6189,1.258,-2.860,-1.524,-4.20,-54.53,0.0000,0.0000,0.0000,-0.192,-0.455,1.926,-0.38,-0.16,2.79,-19.68,-22.47
1803,3300.00,0.00,3300.00,-0.3076,0.9133,0.5664,6.233,4.506,-5.086,17.28,56.34,0.0911,-0.7712,0.6331,3.670,-0.906,-2.990,-4.24,-54.37,0.0000,0.0000,0.0000,-0.192,-0.455,1.926,-0.39,-0.16,2.84,-19.65,-22.49
1817,3300.00,0.00,3300.00,-0.3071,0.9197,0.5708,8.630,4.582,-3.636,17.31,56.50,0.0884,-0.7686,0.6265,2.388,-0.082,-2.394,-4.26,-54.26,0.0000,0.0000,0.0000,-0.192,-0.455,1.926,-0.38,-0.16,2.89,-19.62,-22.51
1841,3300.00,0.00,0.00,-0.3044,0.9268,0.5732,7.225,3.544,1.341,17.37,56.71,0.0969,-0.7661,0.6177,-2.391,4.438,-1.738,-4.18,-54.26,0.0000,0.0000,0.0000,-0.192,-0.455,1.926,-0.39,-0.16,2.93,-19.60,-22.53
1856,0.00,0.00,0.00,-0.2998,0.9189,0.5718,7.027,2.323,3.036,17.36,56.84,0.0945,-0.7988,0.6453,-4.482,0.682,-0.700,-4.19,-54.25,0.0000,0.0000,0.0000,-0.192,-0.455,1.926,-0.39,-0.16,2.97,-19.58,-22.55
1870,0.00,0.00,0.00,-0.2942,0.9194,0.5774,7.729,1.956,4.883,17.34,56.97,0.0906,-0.7798,0.6360,-8.895,-3.410,0.232,-4.26,-54.31,0.0000,0.0000,0.0000,-0.192,-0.455,1.926,-0.38,-0.16,3.00,-19.56,-22.56
1895,0.00,0.00,0.00,-0.2905,0.8950,0.5676,3.500,2.536,4.807,17.36,57.06,0.0874,-0.7759,0.6018,-14.666,-11.410,4.430,-4.55,-54.62,0.0000,0.0000,0.0000,-0.192,-0.455,1.926,-0.39,-0.16,3.00,-19.54,-22.55
1909,0.00,0.00,0.00,-0.2781,0.8757,0.5830,0.065,1.681,3.127,17.34,57.05,0.0811,-0.7952,0.5977,-16.925,-8.234,5.926,-4.67,-54.83,0.0000,0.0000,0.0000,-0.192,-0.455,1.926,-0.39,-0.16,3.01,-19.53,-22.53
1923,0.00,0.00,0.00,-0.2756,0.8850,0.5901,-4.561,3.025,2.837,17.32,56.97,0.0764,-0.7859,0.6240,-20.773,-11.333,8.537,-4.82,-55.06,0.0000,0.0000,0.0000,-0.192,-0.455,1.926,-0.39,-0.16,3.00,-19.51,-22.50
1948,0.00,0.00,0.00,-0.2854,0.8777,0.5757,-2.011,6.811,2.547,17.44,56.92,0.0891,-0.8108,0.6006,-12.696,-4.936,5.224,-4.95,-55.33,0.0000,0.0000,0.0000,-0.192,-0.455,1.926,-0.39,-0.16,2.97,-19.50,-22.47
1962,0.00,0.00,0.00,-0.2917,0.8779,0.5847,-0.744,10.781,2.944,17.56,56.90,0.0698,-0.8010,0.6177,-8.452,-3.898,2.339,-4.98,-55.39,0.0000,0.0000,0.0000,-0.192,-0.455,1.926,-0.39,-0.16,2.94,-19.50,-22.44
1977,0.00,0.00,0.00,-0.2861,0.8882,0.5811,1.760,14.674,4.059,17.71,56.92,0.0879,-0.7869,0.6138,-5.368,-2.860,1.194,-5.02,-55.40,0.0000,0.0000,0.0000,-0.192,-0.455,1.926,-0.39,-0.16,2.89,-19.51,-22.40
2001,0.00,0.00,0.00,-0.2771,0.8955,0.5793,-3.385,10.185,4.440,17.90,56.84,0.1145,-0.7942,0.6218,-3.872,-6.356,2.171,-5.21,-55.42,0.0000,0.0000,0.0000,-0.192,-0.455,1.926,-0.39,-0.16,2.82,-19.54,-22.36
2016,0.00,0.00,0.00,-0.2712,0.8918,0.5605,0.492,9.941,1.646,17.97,56.87,0.1211,-0.8142,0.6016,1.853,-0.585,-0.028,-5.25,-55.36,0.0000,0.0000,0.0000,-0.192,-0.455,1.926,-0.39,-0.16,2.75,-19.56,-22.32
2030,0.00,0.00,0.00,-0.2747,0.8887,0.5581,1.286,10.368,0.440,18.05,56.91,0.1133,-0.8086,0.6204,4.739,3.186,-3.142,-5.22,-55.23,0.0000,0.0000,0.0000,-0.192,-0.455,1.926,-0.39,-0.16,2.68,-19.59,-22.28
2054,0.00,0.00,0.00,-0.2632,0.9082,0.5493,0.981,11.284,-1.041,18.24,56.97,0.1140,-0.7847,0.6201,7.518,-2.509,-3.448,-5.31,-54.98,0.0000,0.0000,0.0000,-0.192,-0.455,1.926,-0.39,-0.16,2.60,-19.64,-22.23
2069,0.00,0.00,0.00,-0.2585,0.9165,0.5596,1.286,10.597,1.387,18.29,57.02,0.1050,-0.7759,0.6218,7.014,-6.692,-0.806,-5.42,-54.81,0.0000,0.0000,0.0000,-0.192,-0.455,1.926,-0.39,-0.16,2.51,-19.68,-22.19
2083,0.00,0.00,0.00,-0.2671,0.9312,0.5391,0.813,12.750,2.669,18.38,57.09,0.1196,-0.7793,0.6162,4.021,-9.043,1.911,-5.57,-54.69,0.0000,0.0000,0.0000,-0.192,-0.455,1.926,-0.39,-0.16,2.41,-19.72,-22.13
2107,0.00,0.00,0.00,-0.2703,0.9202,0.5349,6.767,19.483,1.265,18.77,57.31,0.1206,-0.7854,0.6157,-1.719,-12.494,4.262,-5.90,-54.68,0.0000,0.0000,0.0000,-0.192,-0.455,1.926,-0.39,-0.16,2.27,-19.79,-22.06
2122,0.00,0.00,0.00,-0.2751,0.9121,0.5427,8.935,20.872,0.990,18.97,57.47,0.1182,-0.7861,0.6304,0.556,-12.143,3.331,-6.08,-54.60,0.0000,0.0000,0.0000,-0.192,-0.455,1.926,-0.39,-0.16,2.11,-19.87,-21.98
2136,0.00,0.00,0.00,-0.2830,0.9146,0.5461,6.248,22.460,1.738,19.21,57.59,0.1152,-0.7842,0.6277,-0.131,-14.219,4.842,-6.29,-54.54,0.0000,0.0000,0.0000,-0.192,-0.455,1.926,-0.39,-0.16,1.92,-19.96,-21.89
2161,0.00,0.00,0.00,-0.3022,0.9094,0.5347,5.790,21.269,2.349,19.65,57.77,0.1111,-0.7603,0.6409,1.960,-14.326,5.743,-6.64,-54.40,0.0000,0.0000,0.0000,-0.192,-0.455,1.926,-0.39,-0.16,1.70,-20.08,-21.78
2175,0.00,0.00,0.00,-0.3096,0.9182,0.5259,4.905,22.445,2.471,19.90,57.89,0.1138,-0.7622,0.6372,-0.498,-11.853,7.148,-6.80,-54.32,0.0000,0.0000,0.0000,-0.192,-0.455,1.926,-0.39,-0.16,1.46,-20.20,-21.67
2189,0.00,0.00,0.00,-0.3076,0.9204,0.5286,7.699,24.170,2.150,20.17,58.04,0.1233,-0.7690,0.6338,1.304,-6.921,6.537,-6.91,-54.22,0.0000,0.0000,0.0000,-0.192,-0.455,1.926,-0.39,-0.16,1.22,-20.34,-21.56
2214,0.00,0.00,0.00,-0.2996,0.9265,0.5183,15.225,29.910,0.563,20.80,58.46,0.1306,-0.7781,0.6399,-0.650,-6.555,7.056,-7.07,-54.17,0.0000,0.0000,0.0000,-0.192,-0.455,1.926,-0.39,-0.16,0.93,-20.51,-21.44
2228,0.00,0.00,0.00,-0.3071,0.9202,0.5305,15.699,29.971,-1.361,21.13,58.71,0.1362,-0.7874,0.6426,-4.727,-5.990,6.522,-7.17,-54.17,0.0000,0.0000,0.0000,-0.192,-0.455,1.926,-0.39,-0.16,0.64,-20.69,-21.33
2243,0.00,0.00,0.00,-0.3074,0.9109,0.5483,12.096,26.185,-3.117,21.40,58.89,0.1389,-0.7874,0.6482,-5.490,-6.005,4.705,-7.27,-54.17,0.0000,0.0000,0.0000,-0.192,-0.455,1.926,-0.39,-0.16,0.34,-20.87,-21.21
2267,0.00,0.00,0.00,-0.3167,0.9109,0.5398,5.867,14.796,-5.147,21.66,59.04,0.1328,-0.7871,0.6497,-8.101,-2.982,1.453,-7.34,-54.29,0.0000,0.0000,0.0000,-0.192,-0.455,1.926,-0.39,-0.17,0.04,-21.07,-21.10
2282,0.00,0.00,0.00,-0.3135,0.9109,0.5205,5.179,12.414,-5.926,21.73,59.14,0.1311,-0.7764,0.6367,-7.536,-1.089,-0.959,-7.36,-54.32,0.0000,0.0000,0.0000,-0.192,-0.455,1.926,-0.39,-0.16,-0.25,-21.25,-21.00
2296,0.00,0.00,0.00,-0.3049,0.9272,0.5334,4.340,8.048,-5.483,21.73,59.22,0.1335,-0.7651,0.6304,-5.460,2.025,-2.486,-7.34,-54.32,0.0000,0.0000,0.0000,-0.192,-0.455,1.926,-0.39,-0.16,-0.51,-21.42,-20.91
2320,0.00,0.00,0.00,-0.3130,0.9231,0.5251,8.004,3.742,-4.689,21.71,59.43,0.1279,-0.7556,0.6187,-7.429,7.415,-1.799,-7.16,-54.43,0.0000,0.0000,0.0000,-0.192,-0.455,1.926,-0.39,-0.17,-0.75,-21.58,-20.83
2335,0.00,0.00,0.00,-0.3193,0.9121,0.5315,6.859,0.475,-3.850,21.62,59.54,0.1240,-0.7539,0.6111,-10.116,12.254,-2.165,-6.99,-54.50,0.0000,0.0000,0.0000,-0.192,-0.455,1.926,-0.39,-0.16,-0.95,-21.72,-20.77
2349,0.00,0.00,0.00,-0.3164,0.9075,0.5518,2.157,-0.945,-3.728,21.51,59.55,0.1128,-0.7649,0.6125,-9.811,16.407,-2.425,-6.75,-54.58,0.0000,0.0000,0.0000,-0.192,-0.455,1.926,-0.39,-0.16,-1.11,-21.84,-20.73
2374,0.00,0.00,0.00,-0.2886,0.9194,0.5681,-3.279,-5.891,-2.689,21.24,59.44,0.0991,-0.8210,0.6238,-3.047,17.186,-3.249,-6.31,-54.61,0.0000,0.0000,0.0000,-0.192,-0.455,1.926,-0.39,-0.17,-1.21,-21.93,-20.73
2388,0.00,0.00,0.00,-0.2896,0.9204,0.5530,-2.897,-3.464,-2.552,21.07,59.40,0.0979,-0.8252,0.6318,-4.437,11.949,-4.303,-6.13,-54.63,0.0000,0.0000,0.0000,-0.192,-0.455,1.926,-0.39,-0.16,-1.27,-22.01,-20.74
2402,0.00,0.00,0.00,-0.2944,0.9226,0.5442,-0.454,-1.784,-0.460,20.93,59.39,0.0889,-0.8103,0.6284,-7.979,7.018,-5.158,-6.01,-54.70,0.0000,0.0000,0.0000,-0.192,-0.455,1.926,-0.39,-0.16,-1.32,-22.07,-20.75
2427,0.00,0.00,0.00,-0.3130,0.9021,0.5559,0.508,-6.334,6.059,20.69,59.38,0.0793,-0.7834,0.6196,-8.696,1.796,-9.784,-5.93,-54.85,0.0000,0.0000,0.0000,-0.192,-0.455,1.926,-0.39,-0.17,-1.34,-22.11,-20.77
2441,0.00,3300.00,0.00,-0.3333,0.8765,0.5396,4.019,-10.135,5.570,20.49,59.42,0.0813,-0.7534,0.6160,-5.795,2.361,-13.264,-5.88,-54.85,0.0000,0.0000,0.0000,-0.192,-0.455,1.926,-0.39,-0.16,-1.34,-22.13,-20.80
2455,0.00,3300.00,3300.00,-0.3345,0.8625,0.5295,7.195,-9.891,5.387,20.30,59.50,0.0813,-0.7244,0.6089,-3.887,5.812,-15.035,-5.78,-54.80,0.0000,0.0000,0.0000,-0.192,-0.455,1.926,-0.39,-0.16,-1.32,-22.14,-20.83
2480,0.00,3300.00,3300.00,-0.3000,0.8560,0.5281,-4.912,-14.090,5.066,19.89,59.36,0.0918,-0.7200,0.5974,-0.406,10.102,-14.257,-5.53,-54.72,0.0000,0.0000,0.0000,-0.192,-0.455,1.926,-0.39,-0.17,-1.25,-22.12,-20.87
2494,3300.00,3300.00,3300.00,-0.2866,0.8726,0.5237,-8.927,-15.983,2.883,19.58,59.23,0.1016,-0.7241,0.5945,0.678,10.392,-10.516,-5.40,-54.63,0.0000,0.0000,0.0000,-0.192,-0.455,1.926,-0.39,-0.16,-1.16,-22.08,-20.92
2519,3300.00,3300.00,3300.00,-0.2668,0.8945,0.5281,-15.630,-13.418,-3.132,19.16,58.85,0.1128,-0.7700,0.5898,0.998,10.102,0.766,-5.18,-54.56,0.0000,0.0000,0.0000,-0.192,-0.455,1.926,-0.39,-0.17,-1.03,-22.01,-20.98
2533,3300.00,3300.00,3300.00,-0.2722,0.8909,0.5330,-15.538,-9.158,-7.483,18.94,58.64,0.0942,-0.7812,0.6165,1.197,9.506,5.850,-5.05,-54.49,0.0000,0.0000,0.0000,-0.192,-0.455,1.926,-0.39,-0.17,-0.89,-21.94,-21.05
2558,3300.00,3300.00,3300.00,-0.3350,0.9124,0.6003,-13.279,-6.120,-8.583,18.75,58.28,0.0442,-0.8035,0.6362,-0.360,6.361,8.415,-4.84,-54.44,0.0000,0.0000,0.0000,-0.192,-0.455,1.926,-0.40,-0.17,-0.72,-21.85,-21.13
2572,3300.00,3300.00,3300.00,-0.2937,0.9309,0.6167,-14.072,-7.448,-6.109,18.57,58.04,0.0784,-0.8215,0.6021,-1.704,7.705,8.629,-4.72,-54.45,0.0000,0.0000,0.0000,-0.192,-0.455,1.926,-0.39,-0.17,-0.55,-21.76,-21.21
2597,3300.00,3300.00,3300.00,-0.2839,0.8928,0.5930,-15.614,-9.876,-2.186,18.26,57.64,0.0767,-0.8125,0.5969,-2.635,6.605,6.903,-4.56,-54.50,0.0000,0.0000,0.0000,-0.192,-0.455,1.926,-0.40,-0.17,-0.36,-21.65,-21.29
2611,3300.00,3300.00,3300.00,-0.3027,0.8755,0.5640,-13.324,-9.051,-0.827,18.09,57.44,0.0786,-0.7874,0.6218,-4.208,5.109,2.369,-4.49,-54.50,0.0000,0.0000,0.0000,-0.192,-0.455,1.926,-0.40,-0.17,-0.16,-21.54,-21.38
2636,3300.00,3300.00,3300.00,-0.2871,0.9031,0.5464,-2.943,-4.196,-0.903,17.93,57.40,0.1008,-0.7866,0.6379,-5.124,3.369,1.743,-4.43,-54.56,0.0000,0.0000,0.0000,-0.192,-0.455,1.926,-0.40,-0.17,0.04,-21.42,-21.46
2650,3300.00,3300.00,3300.00,-0.2800,0.9229,0.5527,-3.431,-1.067,-0.598,17.85,57.38,0.1094,-0.7869,0.6328,-5.399,3.247,4.125,-4.42,-54.57,0.0000,0.0000,0.0000,-0.192,-0.455,1.926,-0.40,-0.17,0.23,-21.31,-21.54
2675,3300.00,3300.00,3300.00,-0.2891,0.9055,0.5579,-7.477,-2.822,0.837,17.73,57.22,0.1052,-0.7847,0.6311,-5.918,1.583,5.545,-4.41,-54.64,0.0000,0.0000,0.0000,-0.192,-0.455,1.926,-0.40,-0.17,0.41,-21.20,-21.61
2689,3300.00,3300.00,3300.00,-0.2913,0.8943,0.5496,-7.691,-3.311,0.700,17.64,57.14,0.1074,-0.7876,0.6235,-4.299,3.170,3.239,-4.40,-54.64,0.0000,0.0000,0.0000,-0.192,-0.455,1.926,-0.40,-0.17,0.59,-21.09,-21.68
2714,3300.00,3300.00,3300.00,-0.2935,0.8936,0.5566,-2.912,-2.135,-0.827,17.54,57.09,0.1064,-0.7930,0.6355,0.449,2.178,-0.700,-4.38,-54.56,0.0000,0.0000,0.0000,-0.192,-0.455,1.926,-0.40,-0.17,0.77,-20.97,-21.74
2728,3300.00,3300.00,3300.00,-0.2900,0.9053,0.5598,-0.836,-0.639,-2.537,17.49,57.10,0.1123,-0.7876,0.6230,2.601,2.117,-1.784,-4.39,-54.47,0.0000,0.0000,0.0000,-0.192,-0.455,1.926,-0.40,-0.17,0.94,-20.87,-21.80
2753,3300.00,3300.00,3300.00,-0.2979,0.9092,0.5649,-4.424,-2.563,-2.369,17.39,57.01,0.1108,-0.7791,0.6238,2.205,4.835,-2.471,-4.31,-54.35,0.0000,0.0000,0.0000,-0.192,-0.455,1.926,-0.40,-0.17,1.10,-20.76,-21.87
2767,3300.00,3300.00,3300.00,-0.2910,0.9106,0.5649,-6.790,-2.471,-2.674,17.31,56.94,0.1064,-0.7783,0.6306,0.571,4.667,-2.455,-4.28,-54.28,0.0000,0.0000,0.0000,-0.192,-0.455,1.926,-0.40,-0.17,1.27,-20.66,-21.93
2792,3300.00,3300.00,3300.00,-0.2944,0.9146,0.5693,-4.149,-3.112,-2.460,17.19,56.87,0.0994,-0.7722,0.6243,-2.544,3.079,-1.814,-4.24,-54.27,0.0000,0.0000,0.0000,-0.192,-0.455,1.926,-0.40,-0.17,1.43,-20.55,-21.98
2806,3300.00,3300.00,3300.00,-0.2930,0.8999,0.5547,-2.271,-3.067,-1.544,17.12,56.86,0.0923,-0.7729,0.6289,-3.383,2.071,-1.799,-4.23,-54.25,0.0000,0.0000,0.0000,-0.192,-0.455,1.926,-0.40,-0.17,1.59,-20.45,-22.04
2831,3300.00,3300.00,3300.00,-0.2976,0.8997,0.5547,-1.324,-0.990,-1.560,17.06,56.86,0.0935,-0.7786,0.6270,-3.734,3.262,-0.898,-4.17,-54.28,0.0000,0.0000,0.0000,-0.192,-0.455,1.926,-0.41,-0.17,1.74,-20.35,-22.09
2845,3300.00,3300.00,3300.00,-0.2920,0.9023,0.5608,0.080,-0.090,-1.896,17.03,56.89,0.0933,-0.7695,0.6335,-3.933,3.491,-0.196,-4.15,-54.26,0.0000,0.0000,0.0000,-0.192,-0.455,1.926,-0.40,-0.17,1.89,-20.26,-22.15
2869,3300.00,3300.00,3300.00,-0.2998,0.8982,0.5654,-0.424,0.277,-1.147,17.01,56.90,0.0869,-0.7698,0.6316,-4.513,3.781,0.064,-4.07,-54.30,0.0000,0.0000,0.0000,-0.192,-0.455,1.926,-0.41,-0.17,2.03,-20.17,-22.20
2884,3300.00,3300.00,3300.00,-0.3008,0.8982,0.5720,0.111,0.796,-0.583,17.00,56.91,0.0864,-0.7769,0.6311,-4.620,3.857,-0.135,-4.03,-54.29,0.0000,0.0000,0.0000,-0.192,-0.455,1.926,-0.41,-0.17,2.17,-20.08,-22.25
2908,3300.00,3300.00,3300.00,-0.2917,0.8940,0.5728,-1.859,2.048,0.517,17.01,56.87,0.0950,-0.7751,0.6294,-3.566,2.285,-0.211,-4.01,-54.31,0.0000,0.0000,0.0000,-0.192,-0.455,1.926,-0.41,-0.17,2.30,-20.01,-22.31
2923,3300.00,3300.00,3300.00,-0.2930,0.9019,0.5657,-1.706,1.468,0.822,17.00,56.87,0.0903,-0.7776,0.6255,-4.299,0.621,0.400,-4.02,-54.31,0.0000,0.0000,0.0000,-0.192,-0.455,1.926,-0.41,-0.17,2.42,-19.93,-22.35
2947,3300.00,3300.00,3300.00,-0.3008,0.8950,0.5686,-3.309,0.811,1.326,17.00,56.80,0.0879,-0.7783,0.6353,-4.773,1.064,0.827,-4.02,-54.35,0.0000,0.0000,0.0000,-0.192,-0.455,1.926,-0.41,-0.17,2.53,-19.87,-22.40
2962,3300.00,3300.00,3300.00,-0.2944,0.8975,0.5647,-3.065,1.971,1.005,17.00,56.78,0.0901,-0.7815,0.6282,-2.956,2.682,-0.196,-4.00,-54.33,0.0000,0.0000,0.0000,-0.192,-0.455,1.926,-0.41,-0.17,2.63,-19.80,-22.44
2986,3300.00,3300.00,3300.00,-0.2866,0.8960,0.5676,0.279,2.720,0.471,17.02,56.81,0.0886,-0.7876,0.6243,-1.872,2.376,0.003,-3.96,-54.32,0.0000,0.0000,0.0000,-0.192,-0.455,1.926,-0.41,-0.17,2.73,-19.75,-22.48
3001,3300.00,3300.00,3300.00,-0.2825,0.8975,0.5715,-0.149,3.804,0.517,17.04,56.82,0.0945,-0.7834,0.6213,-1.643,1.674,-0.593,-3.97,-54.29,0.0000,0.0000,0.0000,-0.192,-0.455,1.926,-0.41,-0.17,2.82,-19.70,-22.52
3025,3300.00,3300.00,3300.00,-0.2849,0.8958,0.5637,-0.882,3.269,0.486,17.07,56.82,0.0964,-0.7786,0.6179,-1.108,1.735,-0.593,-3.96,-54.26,0.0000,0.0000,0.0000,-0.192,-0.455,1.926,-0.41,-0.17,2.91,-19.65,-22.56
3040,3300.00,3300.00,3300.00,-0.2825,0.9036,0.5608,-1.324,2.949,0.700,17.07,56.83,0.1060,-0.7815,0.6328,-1.108,2.972,-1.142,-3.96,-54.21,0.0000,0.0000,0.0000,-0.192,-0.455,1.926,-0.41,-0.17,2.98,-19.61,-22.59
3064,3300.00,3300.00,3300.00,-0.2803,0.9072,0.5601,0.019,3.666,0.898,17.11,56.86,0.1023,-0.7771,0.6301,-2.940,-0.921,0.277,-4.02,-54.22,0.0000,0.0000,0.0000,-0.192,-0.455,1.926,-0.41,-0.17,3.05,-19.57,-22.62
3078,3300.00,3300.00,3300.00,-0.2822,0.9062,0.5620,0.401,3.941,1.219,17.12,56.89,0.1023,-0.7717,0.6294,-2.437,-1.746,1.041,-4.08,-54.19,0.0000,0.0000,0.0000,-0.192,-0.455,1.926,-0.41,-0.17,3.10,-19.54,-22.64
3103,3300.00,3300.00,3300.00,-0.2903,0.9075,0.5571,0.584,3.513,1.372,17.17,56.93,0.1018,-0.7683,0.6321,-3.017,-1.456,1.423,-4.15,-54.19,0.0000,0.0000,0.0000,-0.192,-0.455,1.926,-0.41,-0.17,3.14,-19.51,-22.65
3118,3300.00,3300.00,3300.00,-0.2937,0.9058,0.5571,-0.210,3.971,1.540,17.19,56.96,0.1040,-0.7668,0.6396,-3.154,-1.639,1.499,-4.21,-54.15,0.0000,0.0000,0.0000,-0.192,-0.455,1.926,-0.41,-0.17,3.18,-19.49,-22.66
3142,3300.00,3300.00,3300.00,-0.2959,0.9075,0.5542,-1.553,3.971,1.250,17.25,56.95,0.1069,-0.7705,0.6406,-3.658,-2.570,1.789,-4.31,-54.16,0.0000,0.0000,0.0000,-0.192,-0.455,1.926,-0.41,-0.17,3.20,-19.47,-22.67
3156,3300.00,3300.00,3300.00,-0.2991,0.9072,0.5488,-0.912,3.422,0.975,17.27,56.98,0.1089,-0.7664,0.6423,-2.620,-2.570,1.438,-4.38,-54.12,0.0000,0.0000,0.0000,-0.192,-0.455,1.926,-0.41,-0.17,3.21,-19.45,-22.66
3181,3300.00,3300.00,3300.00,-0.3005,0.8997,0.5571,2.096,3.544,0.150,17.33,57.05,0.1028,-0.7710,0.6516,-0.482,-4.326,-0.226,-4.52,-54.04,0.0000,0.0000,0.0000,-0.192,-0.455,1.926,-0.41,-0.18,3.21,-19.44,-22.65
3195,3300.00,3300.00,3300.00,-0.2957,0.9001,0.5552,0.126,2.674,-0.659,17.33,57.08,0.1045,-0.7786,0.6453,-2.162,-4.204,-0.913,-4.60,-54.00,0.0000,0.0000,0.0000,-0.192,-0.455,1.926,-0.41,-0.17,3.20,-19.44,-22.63
3220,3300.00,3300.00,3300.00,-0.2957,0.9062,0.5559,-1.050,0.429,-0.720,17.31,57.08,0.1101,-0.7637,0.6326,-3.857,-2.799,-0.883,-4.70,-54.02,0.0000,0.0000,0.0000,-0.192,-0.455,1.926,-0.42,-0.18,3.19,-19.43,-22.61
3234,3300.00,3300.00,3300.00,-0.2927,0.9021,0.5447,1.332,2.552,-1.560,17.31,57.14,0.1064,-0.7710,0.6357,-5.154,-2.097,-0.272,-4.76,-54.02,0.0000,0.0000,0.0000,-0.192,-0.455,1.926,-0.41,-0.17,3.17,-19.42,-22.59
3259,3300.00,3300.00,3300.00,-0.2917,0.9053,0.5457,-0.027,1.849,-2.094,17.31,57.17,0.1157,-0.7649,0.6311,-7.719,-1.395,0.690,-4.83,-54.13,0.0000,0.0000,0.0000,-0.192,-0.455,1.926,-0.42,-0.18,3.15,-19.41,-22.56
3273,3300.00,3300.00,3300.00,-0.2996,0.9155,0.5569,-0.210,0.552,-1.605,17.29,57.20,0.1116,-0.7646,0.6399,-8.528,-0.005,0.461,-4.86,-54.17,0.0000,0.0000,0.0000,-0.192,-0.455,1.926,-0.41,-0.17,3.13,-19.40,-22.53
3298,3300.00,3300.00,3300.00,-0.3081,0.9175,0.5681,-3.202,-2.746,-0.415,17.20,57.15,0.0986,-0.7676,0.6428,-9.902,1.064,0.369,-4.85,-54.33,0.0000,0.0000,0.0000,-0.192,-0.455,1.926,-0.42,-0.18,3.12,-19.38,-22.50
3312,3300.00,3300.00,3300.00,-0.3123,0.9080,0.5647,-4.882,-3.845,0.196,17.12,57.10,0.0981,-0.7703,0.6448,-9.261,3.155,-0.074,-4.82,-54.38,0.0000,0.0000,0.0000,-0.192,-0.455,1.926,-0.42,-0.18,3.12,-19.36,-22.48
3337,3300.00,3300.00,3300.00,-0.3008,0.8918,0.5723,-3.401,-5.204,-0.155,16.97,57.02,0.0972,-0.7808,0.6267,-8.360,6.147,-0.913,-4.69,-54.51,0.0000,0.0000,0.0000,-0.192,-0.455,1.926,-0.42,-0.18,3.13,-19.33,-22.47
3351,3300.00,3300.00,3300.00,-0.2847,0.8872,0.5693,-5.553,-6.334,-0.384,16.85,56.95,0.0989,-0.7844,0.6321,-6.895,6.468,-1.463,-4.62,-54.54,0.0000,0.0000,0.0000,-0.192,-0.455,1.926,-0.42,-0.18,3.16,-19.30,-22.46
3376,3300.00,3300.00,3300.00,-0.2627,0.8938,0.5837,-5.004,-6.990,-0.628,16.62,56.82,0.1062,-0.7917,0.6023,-6.131,6.102,-1.677,-4.50,-54.66,0.0000,0.0000,0.0000,-0.192,-0.455,1.926,-0.42,-0.18,3.22,-19.25,-22.47
3390,3300.00,3300.00,3300.00,-0.2617,0.8911,0.5769,-5.279,-7.265,-0.506,16.46,56.75,0.1018,-0.7925,0.6040,-6.101,6.041,-0.883,-4.44,-54.70,0.0000,0.0000,0.0000,-0.192,-0.455,1.926,-0.42,-0.18,3.28,-19.19,-22.47
3415,3300.00,3300.00,3300.00,-0.2576,0.8938,0.5811,-6.530,-4.319,-1.499,16.30,56.60,0.1052,-0.7952,0.6028,-6.040,6.071,-0.257,-4.33,-54.81,0.0000,0.0000,0.0000,-0.192,-0.455,1.926,-0.42,-0.18,3.36,-19.13,-22.49
3429,3300.00,3300.00,3300.00,-0.2659,0.8926,0.5779,-4.256,-4.242,-2.735,16.19,56.55,0.1067,-0.7925,0.6055,-5.276,7.140,-2.150,-4.26,-54.84,0.0000,0.0000,0.0000,-0.192,-0.455,1.926,-0.42,-0.18,3.44,-19.06,-22.51
3454,3300.00,3300.00,3300.00,-0.2756,0.9072,0.5798,-2.821,-1.433,-2.094,16.12,56.50,0.0959,-0.7822,0.6189,-4.788,6.010,-1.799,-4.14,-54.89,0.0000,0.0000,0.0000,-0.192,-0.455,1.926,-0.42,-0.18,3.54,-19.00,-22.53
3468,3300.00,3300.00,3300.00,-0.2725,0.9119,0.5559,-3.431,-1.448,-1.804,16.07,56.50,0.0999,-0.7805,0.6201,-5.307,5.094,-0.761,-4.10,-54.90,0.0000,0.0000,0.0000,-0.192,-0.455,1.926,-0.42,-0.18,3.63,-18.93,-22.56
3493,3300.00,3300.00,3300.00,-0.2759,0.9092,0.5527,-1.889,0.216,0.440,16.04,56.49,0.1023,-0.7769,0.6323,-6.940,1.735,1.209,-4.10,-54.98,0.0000,0.0000,0.0000,-0.192,-0.455,1.926,-0.42,-0.18,3.72,-18.87,-22.58
3507,3300.00,3300.00,3300.00,-0.2861,0.9087,0.5498,1.179,2.979,0.395,16.06,56.56,0.0945,-0.7722,0.6340,-6.284,-0.127,1.758,-4.12,-54.99,0.0000,0.0000,0.0000,-0.192,-0.455,1.926,-0.42,-0.18,3.79,-18.81,-22.60
3532,3300.00,3300.00,3300.00,-0.2869,0.8992,0.5430,3.805,7.300,-0.338,16.22,56.70,0.1045,-0.7673,0.6396,-4.910,-2.341,1.987,-4.22,-55.01,0.0000,0.0000,0.0000,-0.192,-0.455,1.926,-0.42,-0.18,3.85,-18.77,-22.62
3546,3300.00,3300.00,3300.00,-0.2964,0.9021,0.5408,3.851,8.414,-0.674,16.33,56.80,0.1079,-0.7622,0.6423,-4.818,-1.089,2.888,-4.27,-54.97,0.0000,0.0000,0.0000,-0.192,-0.455,1.926,-0.42,-0.18,3.89,-18.74,-22.63
3571,3300.00,3300.00,0.00,-0.3132,0.9060,0.5581,5.118,7.468,-1.560,16.51,56.95,0.1077,-0.7668,0.6523,-4.284,1.186,2.552,-4.28,-54.97,0.0000,0.0000,0.0000,-0.192,-0.455,1.926,-0.42,-0.18,3.91,-18.72,-22.63
3585,3300.00,3300.00,0.00,-0.3223,0.9106,0.5552,5.042,6.597,-1.560,16.61,57.06,0.1064,-0.7666,0.6536,-3.918,3.262,1.606,-4.27,-54.92,0.0000,0.0000,0.0000,-0.192,-0.455,1.926,-0.42,-0.18,3.93,-18.71,-22.64
3599,3300.00,3300.00,0.00,-0.3191,0.9077,0.5637,3.576,5.468,-1.957,16.69,57.13,0.1055,-0.7739,0.6555,-2.834,3.995,-0.379,-4.25,-54.85,0.0000,0.0000,0.0000,-0.192,-0.455,1.926,-0.42,-0.18,3.94,-18.71,-22.65
3624,3300.00,3300.00,0.00,-0.2891,0.9082,0.5483,7.744,7.086,-4.766,16.83,57.35,0.1021,-0.7944,0.6448,-4.192,2.987,-0.211,-4.20,-54.88,0.0000,0.0000,0.0000,-0.192,-0.455,1.926,-0.42,-0.18,3.94,-18.72,-22.66
3638,3300.00,3300.00,0.00,-0.2739,0.9097,0.5559,11.531,12.750,-6.048,16.96,57.54,0.1062,-0.8193,0.6255,-6.956,0.957,0.018,-4.22,-54.93,0.0000,0.0000,0.0000,-0.192,-0.455,1.926,-0.42,-0.18,3.94,-18.73,-22.67
3663,0.00,3300.00,0.00,-0.2524,0.9126,0.5786,19.821,21.468,-4.903,17.40,58.02,0.1089,-0.8274,0.5864,-13.032,-1.364,-1.616,-4.29,-55.24,0.0000,0.0000,0.0000,-0.192,-0.455,1.926,-0.42,-0.18,3.89,-18.78,-22.67
3677,0.00,3300.00,0.00,-0.2478,0.9165,0.5928,16.966,19.437,-2.506,17.58,58.23,0.1082,-0.8184,0.5918,-15.093,2.453,-2.410,-4.30,-55.43,0.0000,0.0000,0.0000,-0.192,-0.455,1.926,-0.42,-0.18,3.84,-18.83,-22.68
3702,0.00,3300.00,0.00,-0.2822,0.8911,0.5930,16.492,15.636,-5.071,17.90,58.60,0.1018,-0.7991,0.6003,-11.475,1.308,-2.959,-4.29,-55.66,0.0000,0.0000,0.0000,-0.192,-0.455,1.926,-0.42,-0.18,3.77,-18.91,-22.68
3716,0.00,3300.00,0.00,-0.2886,0.8770,0.5874,13.637,10.659,-6.109,18.00,58.74,0.0923,-0.7754,0.6042,-9.857,1.125,-3.356,-4.30,-55.72,0.0000,0.0000,0.0000,-0.192,-0.455,1.926,-0.42,-0.18,3.70,-18.98,-22.68
3730,0.00,3300.00,0.00,-0.3108,0.8704,0.6006,6.721,1.758,-3.010,17.99,58.77,0.0710,-0.7610,0.5957,-5.521,3.842,-5.875,-4.24,-55.72,0.0000,0.0000,0.0000,-0.192,-0.455,1.926,-0.42,-0.18,3.63,-19.05,-22.69
3755,0.00,3300.00,0.00,-0.2957,0.8792,0.5835,6.065,-1.876,1.585,17.90,58.86,0.0608,-0.7981,0.5869,0.892,7.506,-11.493,-4.05,-55.66,0.0000,0.0000,0.0000,-0.192,-0.455,1.926,-0.42,-0.18,3.60,-19.11,-22.71
3769,0.00,0.00,0.00,-0.2705,0.8914,0.5815,10.202,4.124,4.349,17.89,58.97,0.0649,-0.8333,0.5867,-1.383,3.415,-14.058,-3.99,-55.67,0.0000,0.0000,0.0000,-0.192,-0.455,1.926,-0.42,-0.18,3.56,-19.16,-22.73
3784,0.00,0.00,0.00,-0.2625,0.9016,0.5872,11.867,6.521,8.501,17.89,59.09,0.0632,-0.8369,0.5938,-3.124,-0.799,-17.417,-4.00,-55.69,0.0000,0.0000,0.0000,-0.192,-0.455,1.926,-0.42,-0.18,3.53,-19.21,-22.75
3808,0.00,0.00,0.00,-0.2693,0.8972,0.5684,22.294,10.781,14.776,18.08,59.60,0.0664,-0.8127,0.6011,-0.650,-10.433,-20.226,-4.24,-55.66,0.0000,0.0000,0.0000,-0.192,-0.455,1.926,-0.42,-0.18,3.48,-19.27,-22.75
3823,0.00,0.00,0.00,-0.2837,0.8960,0.5588,24.126,10.506,17.082,18.17,59.91,0.0603,-0.7783,0.6028,-1.826,-14.784,-20.761,-4.43,-55.62,0.0000,0.0000,0.0000,-0.192,-0.455,1.926,-0.42,-0.18,3.40,-19.33,-22.74
3837,0.00,0.00,0.00,-0.2998,0.8713,0.5610,20.889,8.353,21.051,18.24,60.15,0.0571,-0.7483,0.6104,0.831,-20.875,-20.806,-4.71,-55.51,0.0000,0.0000,0.0000,-0.192,-0.455,1.926,-0.41,-0.18,3.31,-19.40,-22.71
3861,0.00,0.00,0.00,-0.2915,0.8694,0.5205,15.958,8.017,25.341,18.39,60.51,0.0828,-0.7271,0.6082,4.418,-22.891,-20.715,-5.26,-55.30,0.0000,0.0000,0.0000,-0.192,-0.455,1.926,-0.42,-0.18,3.17,-19.47,-22.64
3876,0.00,0.00,0.00,-0.3032,0.8667,0.4998,15.622,8.521,25.265,18.48,60.72,0.1003,-0.7234,0.5991,5.090,-19.700,-20.913,-5.55,-55.13,0.0000,0.0000,0.0000,-0.192,-0.455,1.926,-0.42,-0.18,3.02,-19.54,-22.56
3890,0.00,0.00,0.00,-0.2969,0.8560,0.5010,16.355,11.452,23.540,18.61,60.93,0.1047,-0.7290,0.6121,7.609,-13.608,-22.440,-5.76,-54.92,0.0000,0.0000,0.0000,-0.192,-0.455,1.926,-0.41,-0.17,2.86,-19.61,-22.46
3914,0.00,0.00,0.00,-0.2837,0.8784,0.4795,20.691,18.063,16.563,18.98,61.43,0.1196,-0.7500,0.6296,6.724,-16.753,-18.486,-6.19,-54.66,0.0000,0.0000,0.0000,-0.192,-0.455,1.926,-0.42,-0.18,2.65,-19.70,-22.35
3929,0.00,0.00,0.00,-0.2656,0.9150,0.5010,19.378,22.475,11.402,19.20,61.70,0.1270,-0.7605,0.6284,3.518,-22.753,-13.509,-6.53,-54.52,0.0000,0.0000,0.0000,-0.192,-0.455,1.926,-0.41,-0.17,2.41,-19.81,-22.22
3943,0.00,0.00,0.00,-0.2778,0.9685,0.5227,13.836,23.254,9.814,19.43,61.90,0.1357,-0.7812,0.6501,-1.536,-25.578,-6.730,-6.91,-54.46,0.0000,0.0000,0.0000,-0.192,-0.455,1.926,-0.41,-0.17,2.15,-19.92,-22.07
3968,0.00,0.00,0.00,-0.2837,0.9929,0.5310,20.935,25.437,1.265,19.94,62.40,0.1494,-0.8499,0.6543,-5.643,-27.975,2.552,-7.61,-54.55,0.0000,0.0000,0.0000,-0.192,-0.455,1.926,-0.42,-0.18,1.82,-20.06,-21.88
3982,0.00,0.00,0.00,-0.2817,0.9832,0.5391,20.767,31.773,-5.025,20.27,62.67,0.1416,-0.8423,0.6255,-10.559,-29.593,6.201,-8.02,-54.68,0.0000,0.0000,0.0000,-0.192,-0.455,1.926,-0.41,-0.17,1.47,-20.21,-21.68
3996,0.00,0.00,0.00,-0.2988,0.9548,0.5688,21.867,28.277,-1.590,20.56,62.91,0.1140,-0.8071,0.6150,-12.330,-31.043,4.308,-8.43,-54.81,0.0000,0.0000,0.0000,-0.192,-0.455,1.926,-0.41,-0.17,1.09,-20.38,-21.46
4021,0.00,0.00,0.00,-0.2708,0.8906,0.5444,24.492,24.613,7.967,21.03,63.41,0.1313,-0.8154,0.5823,-10.162,-28.509,0.277,-9.09,-55.05,0.0000,0.0000,0.0000,-0.192,-0.455,1.926,-0.41,-0.17,0.65,-20.56,-21.21
4035,0.00,0.00,0.00,-0.2979,0.8818,0.4990,25.042,22.567,6.547,21.25,63.70,0.1411,-0.7795,0.6279,-8.925,-24.860,-2.669,-9.42,-55.10,0.0000,0.0000,0.0000,-0.192,-0.455,1.926,-0.41,-0.17,0.21,-20.75,-20.96
4050,0.00,0.00,0.00,-0.3379,0.8679,0.4636,22.355,22.185,2.792,21.52,63.98,0.1399,-0.7400,0.6533,-5.139,-19.318,-6.257,-9.66,-55.04,0.0000,0.0000,0.0000,-0.192,-0.455,1.926,-0.41,-0.17,-0.23,-20.94,-20.71
4074,0.00,0.00,0.00,-0.3767,0.8726,0.4883,24.569,18.368,-3.224,21.95,64.51,0.1145,-0.7351,0.6587,-0.437,-12.326,-7.936,-9.90,-54.91,0.0000,0.0000,0.0000,-0.192,-0.455,1.926,-0.41,-0.17,-0.69,-21.15,-20.45
4088,0.00,0.00,0.00,-0.3792,0.9050,0.5134,25.958,12.017,-6.140,22.07,64.79,0.1128,-0.7354,0.6587,7.640,-2.020,-9.417,-9.86,-54.67,0.0000,0.0000,0.0000,-0.192,-0.455,1.926,-0.41,-0.17,-1.13,-21.35,-20.22
4103,0.00,0.00,0.00,-0.3604,0.9451,0.5417,15.851,2.338,-1.712,22.03,64.92,0.0972,-0.7339,0.6790,12.617,-2.036,-9.295,-9.80,-54.34,0.0000,0.0000,0.0000,-0.192,-0.455,1.926,-0.41,-0.17,-1.53,-21.54,-20.01
4127,0.00,0.00,0.00,-0.3521,0.8879,0.4600,10.920,-7.128,2.288,21.81,65.13,0.0938,-0.7192,0.6760,15.976,-6.998,-8.715,-9.88,-53.81,0.0000,0.0000,0.0000,-0.192,-0.455,1.926,-0.41,-0.17,-1.89,-21.69,-19.81
4141,0.00,0.00,0.00,-0.3494,0.9004,0.4688,12.615,-7.738,3.005,21.64,65.26,0.1328,-0.7317,0.6533,16.372,-3.211,-9.570,-9.88,-53.47,0.0000,0.0000,0.0000,-0.192,-0.455,1.926,-0.41,-0.17,-2.21,-21.83,-19.62
4156,0.00,0.00,0.00,-0.3416,0.9106,0.4751,17.149,-10.670,4.166,21.43,65.44,0.1331,-0.7190,0.6389,8.876,-4.723,-9.371,-9.91,-53.24,0.0000,0.0000,0.0000,-0.192,-0.455,1.926,-0.41,-0.17,-2.50,-21.94,-19.44
4180,0.00,0.00,0.00,-0.4167,0.9236,0.5149,18.065,-23.082,14.166,20.87,65.79,0.0798,-0.7107,0.6816,-0.299,-0.143,-17.081,-9.81,-53.11,0.0000,0.0000,0.0000,-0.192,-0.455,1.926,-0.41,-0.17,-2.72,-22.00,-19.29
4195,0.00,0.00,0.00,-0.3840,0.9473,0.5420,24.340,-25.861,21.891,20.48,66.02,0.0979,-0.7029,0.6775,0.327,-1.669,-21.493,-9.75,-52.96,0.0000,0.0000,0.0000,-0.192,-0.455,1.926,-0.41,-0.17,-2.89,-22.04,-19.14
4219,0.00,0.00,0.00,-0.3706,1.0764,0.4246,40.798,-20.716,33.585,19.93,67.04,0.1394,-0.6709,0.7021,9.319,-12.417,-19.829,-10.02,-52.55,0.0000,0.0000,0.0000,-0.192,-0.455,1.926,-0.41,-0.17,-3.03,-22.03,-18.99
4233,0.00,0.00,0.00,-0.4089,1.0693,0.3662,65.118,-16.761,44.853,19.70,68.04,0.1775,-0.7095,0.7332,-7.368,-13.425,-20.181,-10.20,-52.49,0.0000,0.0000,0.0000,-0.192,-0.455,1.926,-0.41,-0.17,-3.16,-22.00,-18.84
4258,0.00,0.00,0.00,-0.3828,0.9575,0.5178,17.317,-12.471,63.555,19.39,68.32,0.1277,-0.7610,0.6978,-52.421,-23.837,-23.677,-10.71,-53.64,0.0000,0.0000,0.0000,-0.192,-0.455,1.926,-0.41,-0.17,-3.30,-21.96,-18.66
4272,0.00,0.00,0.00,-0.3948,0.9087,0.4482,-13.614,-8.914,66.807,19.30,68.04,0.0906,-0.6951,0.7502,-56.895,-28.982,-24.608,-11.00,-54.22,0.0000,0.0000,0.0000,-0.192,-0.455,1.926,-0.41,-0.17,-3.44,-21.91,-18.47
4297,0.00,0.00,0.00,-0.4048,1.0271,0.4177,-11.874,-7.998,70.364,19.13,67.75,0.1165,-0.7917,0.7029,-79.750,-29.776,-22.898,-11.62,-56.02,0.0000,0.0000,0.0000,-0.192,-0.455,1.926,-0.41,-0.17,-3.60,-21.85,-18.26
4311,0.00,0.00,0.00,-0.3401,0.9358,0.5146,0.416,-12.838,82.349,18.92,67.63,0.1370,-0.8621,0.7219,-91.246,-29.730,-36.043,-11.95,-57.18,0.0000,0.0000,0.0000,-0.192,-0.455,1.926,-0.41,-0.17,-3.75,-21.79,-18.03
4336,0.00,0.00,0.00,-0.3162,1.0305,0.4148,18.447,-13.784,95.204,18.53,68.08,0.1929,-0.7798,0.7290,-74.788,-42.173,-57.173,-12.93,-58.77,0.0000,0.0000,0.0000,-0.192,-0.455,1.926,-0.41,-0.17,-3.94,-21.70,-17.76
4350,0.00,0.00,0.00,-0.3066,1.0898,0.4448,15.699,-19.494,100.929,18.17,68.29,0.2732,-0.7771,0.6782,-77.322,-53.043,-58.226,-13.71,-59.66,0.0000,0.0000,0.0000,-0.192,-0.455,1.926,-0.41,-0.17,-4.14,-21.59,-17.45
4374,0.00,0.00,0.00,-0.1973,1.0305,0.4438,17.317,-38.105,111.616,17.09,68.68,0.3320,-0.8235,0.6118,-93.719,-58.265,-72.318,-15.20,-61.79,0.0000,0.0000,0.0000,-0.192,-0.455,1.926,-0.42,-0.18,-4.36,-21.41,-17.05
4389,0.00,0.00,0.00,-0.0999,1.0293,0.4241,22.752,-42.883,117.219,16.25,68.98,0.3132,-0.8523,0.6470,-104.315,-75.669,-76.440,-16.28,-63.07,0.0000,0.0000,0.0000,-0.192,-0.455,1.926,-0.41,-0.17,-4.58,-21.19,-16.61
4413,0.00,0.00,0.00,0.0076,1.0593,0.3750,49.408,-41.922,128.746,14.91,70.19,0.3855,-0.8003,0.4878,-87.551,-59.761,-89.661,-17.83,-65.08,0.0000,0.0000,0.0000,-0.192,-0.455,1.926,-0.42,-0.18,-4.80,-20.89,-16.09
4427,0.00,0.00,3300.00,0.0449,1.0703,0.3662,56.935,-39.998,132.563,14.01,71.01,0.4268,-0.8472,0.4915,-91.948,-62.952,-90.623,-18.83,-66.27,0.0000,0.0000,0.0000,-0.192,-0.455,1.926,-0.41,-0.17,-5.01,-20.55,-15.53
4452,0.00,0.00,3300.00,0.0210,1.0835,0.4199,46.950,-44.364,131.662,12.64,72.09,0.4309,-0.8159,0.4937,-98.360,-88.066,-86.104,-21.06,-68.49,0.0000,0.0000,0.0000,-0.192,-0.455,1.926,-0.42,-0.18,-5.27,-20.13,-14.86
4466,3300.00,0.00,3300.00,0.0195,1.0603,0.4321,38.844,-51.204,131.646,11.65,72.56,0.4351,-0.8647,0.3801,-106.681,-92.723,-90.669,-22.44,-69.95,0.0000,0.0000,0.0000,-0.192,-0.455,1.926,-0.41,-0.18,-5.53,-19.68,-14.14
4491,3300.00,0.00,3300.00,0.0688,0.9885,0.4329,44.508,-52.425,139.784,10.08,73.50,0.4219,-0.9263,0.3987,-104.788,-85.028,-102.547,-24.49,-72.41,0.0000,0.0000,0.0000,-0.192,-0.455,1.926,-0.42,-0.18,-5.82,-19.14,-13.33
4505,3300.00,3300.00,3300.00,0.1230,0.9561,0.4016,56.752,-43.983,145.127,9.12,74.18,0.4333,-0.9392,0.3696,-89.872,-89.868,-110.440,-25.73,-73.60,0.0000,0.0000,0.0000,-0.192,-0.455,1.926,-0.42,-0.18,-6.10,-18.58,-12.48
4530,3300.00,3300.00,3300.00,0.1514,1.0535,0.3462,75.470,-36.685,147.402,7.90,75.95,0.5291,-0.8611,0.3306,-83.918,-85.257,-116.119,-27.87,-75.52,0.0000,0.0000,0.0000,-0.192,-0.455,1.926,-0.42,-0.18,-6.42,-17.97,-11.55
4544,3300.00,3300.00,3300.00,0.1782,1.1292,0.3445,71.775,-36.456,152.990,7.06,76.90,0.5051,-0.7935,0.3508,-95.200,-97.059,-108.822,-29.28,-76.67,0.0000,0.0000,0.0000,-0.192,-0.455,1.926,-0.42,-0.18,-6.76,-17.35,-10.58
4569,3300.00,3300.00,3300.00,0.1577,1.0835,0.3674,51.989,-48.273,159.234,5.60,78.04,0.4951,-0.7744,0.3120,-117.841,-118.814,-89.967,-32.17,-79.34,0.0000,0.0000,0.0000,-0.192,-0.455,1.926,-0.42,-0.18,-7.18,-16.66,-9.48
4583,3300.00,3300.00,3300.00,0.1570,1.0125,0.3494,48.233,-54.074,166.166,4.56,78.57,0.5493,-0.8284,0.2949,-129.643,-117.914,-90.135,-33.82,-80.98,0.0000,0.0000,0.0000,-0.192,-0.455,1.926,-0.42,-0.18,-7.61,-15.95,-8.34
4608,3300.00,3300.00,3300.00,0.2078,0.9231,0.3176,50.844,-59.097,168.471,2.80,79.65,0.5288,-0.8740,0.2500,-127.368,-119.578,-101.799,-36.64,-83.92,0.0000,0.0000,0.0000,-0.192,-0.455,1.926,-0.42,-0.18,-8.09,-15.17,-7.08
4622,3300.00,3300.00,3300.00,0.2712,0.9080,0.2930,63.576,-54.151,167.219,1.66,80.40,0.5227,-0.8638,0.2163,-120.040,-127.975,-110.929,-38.32,-85.46,0.0000,0.0000,0.0000,-0.192,-0.455,1.926,-0.42,-0.18,-8.57,-14.37,-5.79
4647,3300.00,3300.00,3300.00,0.3411,0.9360,0.2446,88.019,-35.571,167.906,0.38,82.42,0.5825,-0.8242,0.1694,-109.841,-136.494,-118.501,-41.54,-87.96,0.0000,0.0000,0.0000,-0.192,-0.455,1.926,-0.42,-0.18,-9.15,-13.53,-4.37
4661,3300.00,3300.00,3300.00,0.3450,0.9570,0.2332,97.347,-29.250,163.906,-0.42,83.67,0.6472,-0.7952,0.1543,-100.971,-141.776,-121.326,-43.48,-89.21,0.0000,0.0000,0.0000,-0.192,-0.455,1.926,-0.42,-0.18,-9.78,-12.69,-2.91
4686,3300.00,3300.00,3300.00,0.2971,0.9707,0.2427,91.057,-27.326,156.120,-1.40,85.71,0.6931,-0.7708,0.1633,-97.811,-149.227,-115.371,-47.03,-91.34,0.0000,0.0000,0.0000,-0.192,-0.455,1.926,-0.42,-0.18,-10.53,-11.84,-1.31
4700,3300.00,3300.00,3300.00,0.3408,0.9639,0.2229,89.683,-28.013,148.883,-2.15,86.79,0.6829,-0.7935,0.1331,-91.521,-146.036,-115.463,-48.95,-92.41,0.0000,0.0000,0.0000,-0.192,-0.455,1.926,-0.42,-0.18,-11.32,-11.00,0.32
4725,3300.00,3300.00,3300.00,0.3938,0.9531,0.2144,84.660,-27.647,141.509,-3.21,88.64,0.7051,-0.7715,0.0588,-97.200,-133.272,-117.066,-52.02,-94.61,0.0000,0.0000,0.0000,-0.192,-0.455,1.926,-0.42,-0.18,-12.19,-10.15,2.05
4739,3300.00,3300.00,3300.00,0.4150,0.9023,0.1992,83.851,-30.258,140.715,-4.06,89.60,0.6509,-0.7366,0.0803,-97.047,-142.891,-116.425,-53.82,-95.76,0.0000,0.0000,0.0000,-0.192,-0.455,1.926,-0.42,-0.18,-13.07,-9.29,3.78
4764,3300.00,3300.00,3300.00,0.3457,0.9087,0.2375,81.210,-27.158,140.303,-5.03,91.26,0.6904,-0.7026,0.0769,-91.017,-131.242,-114.730,-56.78,-97.71,0.0000,0.0000,0.0000,-0.192,-0.455,1.926,-0.42,-0.18,-14.03,-8.43,5.60
4778,3300.00,3300.00,3300.00,0.3560,0.9146,0.2144,67.989,-27.525,140.929,-5.73,91.93,0.7283,-0.6838,0.0515,-82.421,-131.272,-113.890,-58.43,-98.63,0.0000,0.0000,0.0000,-0.192,-0.455,1.926,-0.42,-0.18,-14.98,-7.57,7.41
4803,3300.00,3300.00,3300.00,0.4316,0.8967,0.1450,57.225,-37.387,136.547,-7.03,93.10,0.6763,-0.6982,0.0708,-70.635,-146.112,-106.211,-61.68,-100.05,0.0000,0.0000,0.0000,-0.192,-0.455,1.926,-0.42,-0.18,-16.01,-6.69,9.32
4817,3300.00,3300.00,3300.00,0.4297,0.8845,0.1230,65.683,-28.090,135.311,-7.80,93.80,0.6870,-0.6870,0.0708,-60.498,-146.265,-109.982,-63.40,-100.58,0.0000,0.0000,0.0000,-0.192,-0.455,1.926,-0.42,-0.18,-17.03,-5.82,11.21
4842,3300.00,3300.00,3300.00,0.4097,0.8777,0.1365,75.195,-17.036,124.318,-8.55,95.36,0.7253,-0.7454,0.0496,-55.765,-123.730,-108.868,-65.99,-101.64,0.0000,0.0000,0.0000,-0.192,-0.455,1.926,-0.42,-0.18,-18.10,-4.95,13.15
4856,3300.00,3300.00,3300.00,0.3594,0.8782,0.1353,73.073,-7.647,112.440,-8.93,96.10,0.7537,-0.8206,0.0640,-33.032,-89.395,-109.005,-66.78,-101.78,0.0000,0.0000,0.0000,-0.192,-0.455,1.926,-0.42,-0.18,-19.13,-4.12,15.02
4880,3300.00,3300.00,3300.00,0.3511,0.9524,0.2253,73.118,-20.639,93.082,-9.64,97.48,0.7236,-0.6731,-0.0427,-23.643,-66.799,-117.814,-67.99,-102.19,0.0000,0.0000,0.0000,-0.192,-0.455,1.926,-0.42,-0.18,-20.13,-3.29,16.83
4895,3300.00,3300.00,3300.00,0.4160,0.9431,0.1494,43.622,-29.235,96.807,-10.33,97.76,0.7217,-0.6497,-0.0225,-46.834,-61.165,-105.387,-68.45,-102.64,0.0000,0.0000,0.0000,-0.192,-0.455,1.926,-0.42,-0.18,-21.04,-2.48,18.56
4919,3300.00,3300.00,3300.00,0.4854,0.8750,0.1135,43.195,-35.540,102.608,-11.56,98.50,0.7642,-0.5833,-0.1296,-63.093,-46.158,-89.555,-69.24,-104.16,0.0000,0.0000,0.0000,-0.192,-0.455,1.926,-0.42,-0.18,-21.85,-1.64,20.21
4934,3300.00,3300.00,3300.00,0.4961,0.8479,0.0872,37.470,-30.090,104.547,-12.35,98.74,0.7629,-0.6262,-0.0049,-94.956,-40.265,-76.104,-69.43,-105.22,0.0000,0.0000,0.0000,-0.192,-0.455,1.926,-0.42,-0.18,-22.56,-0.80,21.77
4958,3300.00,3300.00,3300.00,0.4375,0.8552,0.1462,24.935,-29.662,92.089,-13.35,98.97,0.7771,-0.6165,0.0002,-55.505,-64.051,-69.677,-70.62,-106.25,0.0000,0.0000,0.0000,-0.192,-0.455,1.926,-0.42,-0.18,-23.24,0.06,23.30
4973,0.00,0.00,3300.00,0.3916,0.8931,0.2017,12.111,-42.945,90.303,-14.16,98.71,0.7412,-0.5972,-0.0769,-60.956,-78.112,-58.287,-71.32,-106.93,0.0000,0.0000,0.0000,-0.192,-0.455,1.926,-0.42,-0.18,-23.86,0.90,24.77
4997,0.00,0.00,3300.00,0.5068,0.8438,0.1250,-36.332,-70.364,100.043,-16.18,97.49,0.7883,-0.5081,-0.1140,-75.429,-92.356,-38.028,-73.25,-108.66,0.0000,0.0000,0.0000,-0.192,-0.455,1.926,-0.42,-0.18,-24.44,1.83,26.27
5012,0.00,0.00,3300.00,0.5491,0.8833,0.0667,-83.767,-80.242,112.104,-17.63,96.07,0.7117,-0.5486,-0.1760,-89.414,-121.853,-35.906,-74.53,-109.91,0.0000,0.0000,0.0000,-0.192,-0.455,1.926,-0.42,-0.18,-24.96,2.80,27.76
5037,0.00,0.00,3300.00,0.6648,0.7498,0.0183,-1.309,-61.296,109.738,-19.59,95.89,0.8264,-0.6123,-0.1548,-88.940,-116.249,-42.211,-76.91,-111.95,0.0000,0.0000,0.0000,-0.192,-0.455,1.926,-0.43,-0.18,-25.47,3.84,29.31
5051,0.00,0.00,3300.00,0.6118,0.8059,0.0676,5.683,-50.242,109.616,-20.65,95.76,0.9014,-0.4385,-0.2737,-90.757,-110.402,-35.921,-78.13,-113.43,0.0000,0.0000,0.0000,-0.192,-0.455,1.926,-0.42,-0.18,-25.96,4.87,30.83
5075,0.00,0.00,3300.00,0.5452,0.8508,0.1729,-0.317,-57.830,94.379,-22.27,95.40,0.8037,-0.7363,-0.2615,-59.261,-64.967,-45.493,-79.04,-114.78,0.0000,0.0000,0.0000,-0.192,-0.455,1.926,-0.43,-0.18,-26.36,5.95,32.32
5090,0.00,2714.95,3300.00,0.5647,0.8181,0.2183,-22.057,-62.425,86.456,-23.37,94.69,0.7356,-0.6978,-0.1687,-70.238,-44.066,-37.112,-78.99,-115.54,0.0000,0.0000,0.0000,-0.192,-0.455,1.926,-0.42,-0.18,-26.66,7.03,33.69
5114,3300.00,3300.00,3300.00,0.6084,0.7585,0.1936,-21.446,-59.235,81.540,-25.09,93.79,0.7095,-0.6484,-0.2737,-49.811,-47.456,-29.768,-79.46,-116.68,0.0000,0.0000,0.0000,-0.192,-0.455,1.926,-0.43,-0.18,-26.85,8.16,35.01
5129,3300.00,3300.00,3300.00,0.7014,0.7437,0.1531,-24.927,-53.769,79.891,-26.20,93.13,0.7217,-0.6885,-0.2847,-59.444,-48.814,-29.417,-79.44,-117.43,0.0000,0.0000,0.0000,-0.192,-0.455,1.926,-0.42,-0.18,-26.94,9.28,36.22
5153,3300.00,3300.00,3300.00,0.6870,0.7627,0.1489,5.271,-20.578,73.463,-27.00,92.98,0.7209,-0.7227,-0.2292,-55.811,-59.486,-40.547,-80.17,-118.59,0.0000,0.0000,0.0000,-0.192,-0.455,1.926,-0.43,-0.18,-27.03,10.38,37.41
5168,3300.00,3300.00,3300.00,0.6411,0.7839,0.1401,0.721,-12.746,65.356,-27.42,92.72,0.7598,-0.6992,-0.2300,-51.276,-53.410,-42.608,-80.23,-119.11,0.0000,0.0000,0.0000,-0.192,-0.455,1.926,-0.42,-0.18,-27.08,11.43,38.52
5192,3300.00,3300.00,3300.00,0.5610,0.7883,0.0991,-15.446,-15.250,43.860,-27.94,92.15,0.8296,-0.5725,-0.2034,-29.307,-22.143,-34.730,-80.24,-119.62,0.0000,0.0000,0.0000,-0.192,-0.455,1.926,-0.43,-0.18,-27.09,12.45,39.55
5207,3300.00,3300.00,3300.00,0.6245,0.7610,0.0530,-33.095,-22.029,41.769,-28.48,91.56,0.8206,-0.5715,-0.2446,-25.261,-14.952,-27.051,-79.90,-119.85,0.0000,0.0000,0.0000,-0.192,-0.455,1.926,-0.42,-0.18,-27.05,13.43,40.48
5231,3300.00,3300.00,3300.00,0.6555,0.7593,0.0264,-17.111,-11.448,38.563,-29.00,91.08,0.8438,-0.6145,-0.2244,-21.795,-12.845,-29.448,-79.66,-120.18,0.0000,0.0000,0.0000,-0.192,-0.455,1.926,-0.43,-0.18,-26.95,14.38,41.33
5246,3300.00,3300.00,3300.00,0.6189,0.7698,0.0535,9.408,-4.945,27.479,-29.27,91.11,0.9043,-0.5613,-0.1731,-19.994,10.590,-26.287,-79.05,-120.20,0.0000,0.0000,0.0000,-0.192,-0.455,1.926,-0.43,-0.18,-26.79,15.29,42.08
5270,3300.00,3300.00,3300.00,0.6221,0.8049,0.0796,-2.118,-0.960,18.150,-29.46,90.93,0.8354,-0.5139,-0.2246,-31.307,29.918,-12.364,-77.87,-120.83,0.0000,0.0000,0.0000,-0.192,-0.455,1.926,-0.43,-0.18,-26.56,16.14,42.69
5285,3300.00,3300.00,3300.00,0.6174,0.8049,0.0747,-7.874,-1.845,10.975,-29.64,90.69,0.8245,-0.5396,-0.2239,-29.780,24.224,-6.577,-77.07,-121.08,0.0000,0.0000,0.0000,-0.192,-0.455,1.926,-0.43,-0.18,-26.26,16.94,43.21
5309,3300.00,3300.00,3300.00,0.6216,0.7639,0.1360,-18.088,-7.693,7.753,-30.01,90.04,0.7598,-0.5410,-0.2439,-28.330,9.964,-2.623,-76.33,-121.63,0.0000,0.0000,0.0000,-0.192,-0.455,1.926,-0.43,-0.18,-25.92,17.72,43.64
5324,3300.00,3300.00,3300.00,0.6545,0.7297,0.1138,-31.523,-11.158,10.303,-30.40,89.42,0.7322,-0.5908,-0.2358,-28.009,-5.303,-3.997,-75.86,-121.83,0.0000,0.0000,0.0000,-0.192,-0.455,1.926,-0.43,-0.18,-25.53,18.47,44.00
5348,3300.00,3300.00,3300.00,0.6350,0.7830,0.0654,-18.988,-3.830,6.868,-30.66,88.87,0.8582,-0.5320,-0.2292,-23.811,-13.975,-5.203,-75.79,-122.23,0.0000,0.0000,0.0000,-0.192,-0.455,1.926,-0.43,-0.18,-25.15,19.18,44.33
5363,3300.00,3300.00,3300.00,0.6460,0.7727,0.0332,-14.882,-6.517,5.708,-30.94,88.64,0.8730,-0.5015,-0.2512,-17.399,-18.662,-1.631,-75.69,-122.36,0.0000,0.0000,0.0000,-0.192,-0.455,1.926,-0.43,-0.18,-24.77,19.86,44.64
5387,3300.00,3300.00,3300.00,0.6743,0.7466,0.0046,-10.744,-5.082,-0.689,-31.28,88.40,0.8511,-0.5200,-0.2725,-13.857,-10.509,6.491,-75.54,-122.60,0.0000,0.0000,0.0000,-0.192,-0.455,1.926,-0.43,-0.18,-24.39,20.52,44.91
5402,3300.00,3300.00,3300.00,0.6738,0.7378,-0.0024,-8.301,-6.181,-3.850,-31.59,88.32,0.8679,-0.5249,-0.2976,-16.345,1.247,10.155,-75.11,-122.77,0.0000,0.0000,0.0000,-0.192,-0.455,1.926,-0.43,-0.18,-23.97,21.16,45.13
5426,3300.00,3300.00,3300.00,0.7136,0.7224,0.0237,-7.156,-6.074,-4.476,-32.00,88.14,0.8428,-0.5125,-0.3545,-0.864,23.064,6.781,-74.12,-122.83,0.0000,0.0000,0.0000,-0.192,-0.455,1.926,-0.43,-0.18,-23.49,21.78,45.27
5441,3300.00,3300.00,3300.00,0.7290,0.6953,0.0159,-5.950,-3.448,-2.140,-32.33,88.07,0.8455,-0.4954,-0.3342,1.914,23.705,1.331,-73.40,-122.83,0.0000,0.0000,0.0000,-0.192,-0.455,1.926,-0.43,-0.18,-22.97,22.38,45.35
5465,3300.00,3300.00,3300.00,0.6968,0.7197,-0.0076,1.088,5.941,3.509,-32.42,88.15,0.8662,-0.5054,-0.2871,3.395,17.812,-10.303,-72.63,-122.68,0.0000,0.0000,0.0000,-0.192,-0.455,1.926,-0.43,-0.18,-22.43,22.94,45.37
5480,3300.00,3300.00,3300.00,0.6692,0.7761,0.0137,7.470,11.025,1.937,-32.44,88.27,0.8745,-0.4873,-0.2566,6.434,11.262,-11.921,-72.18,-122.49,0.0000,0.0000,0.0000,-0.192,-0.455,1.926,-0.43,-0.18,-21.89,23.47,45.35
5504,3300.00,3300.00,3300.00,0.6506,0.8018,0.0317,4.050,10.170,-3.957,-32.32,88.35,0.8347,-0.5017,-0.2302,-0.147,-9.837,-0.028,-72.10,-122.34,0.0000,0.0000,0.0000,-0.192,-0.455,1.926,-0.43,-0.18,-21.39,23.95,45.33
5519,3300.00,3300.00,3300.00,0.6401,0.7820,0.0547,-0.347,11.407,-6.384,-32.30,88.30,0.8320,-0.5254,-0.2380,-1.169,-20.417,8.919,-72.05,-122.20,0.0000,0.0000,0.0000,-0.192,-0.455,1.926,-0.43,-0.18,-20.92,24.39,45.31
5543,3300.00,3300.00,3300.00,0.6633,0.7507,0.0789,0.905,7.773,-5.728,-32.29,88.24,0.8306,-0.5579,-0.2991,-1.795,-11.196,8.674,-71.93,-122.16,0.0000,0.0000,0.0000,-0.192,-0.455,1.926,-0.43,-0.18,-20.48,24.81,45.28
5558,3300.00,3300.00,3300.00,0.6675,0.7363,0.0835,-1.217,10.292,-5.911,-32.34,88.13,0.8232,-0.5767,-0.2891,-5.063,10.453,5.102,-71.39,-122.12,0.0000,0.0000,0.0000,-0.192,-0.455,1.926,-0.43,-0.18,-20.03,25.19,45.22
5582,3300.00,3300.00,3300.00,0.6426,0.7898,0.0942,6.920,11.956,-6.659,-32.19,88.20,0.8320,-0.5352,-0.2634,-11.124,24.773,5.804,-70.45,-122.27,0.0000,0.0000,0.0000,-0.192,-0.455,1.926,-0.43,-0.18,-19.55,25.54,45.09
5597,3300.00,3300.00,3300.00,0.6460,0.7837,0.1204,3.851,10.231,-4.567,-32.18,88.11,0.8013,-0.5400,-0.2612,-16.681,17.537,8.537,-69.85,-122.38,0.0000,0.0000,0.0000,-0.192,-0.455,1.926,-0.43,-0.18,-19.07,25.87,44.94
5621,3300.00,3300.00,3300.00,0.6609,0.7537,0.1116,-7.355,8.262,-6.277,-32.16,87.80,0.7930,-0.5430,-0.2854,-11.857,13.247,15.468,-69.18,-122.57,0.0000,0.0000,0.0000,-0.192,-0.455,1.926,-0.43,-0.18,-18.57,26.17,44.74
5636,3300.00,3300.00,3300.00,0.6833,0.7424,0.1121,-9.584,5.605,-7.178,-32.28,87.54,0.7842,-0.5823,-0.3149,-11.490,7.537,18.445,-68.69,-122.65,0.0000,0.0000,0.0000,-0.192,-0.455,1.926,-0.43,-0.18,-18.07,26.46,44.53
5660,3300.00,3300.00,3300.00,0.7178,0.6873,0.0627,-2.240,16.506,-9.712,-32.16,87.43,0.7937,-0.5928,-0.3110,-4.605,5.460,14.232,-68.18,-122.66,0.0000,0.0000,0.0000,-0.192,-0.455,1.926,-0.43,-0.18,-17.57,26.72,44.29
5675,3300.00,3300.00,3300.00,0.7136,0.6892,0.0505,11.286,25.269,-13.926,-32.08,87.56,0.8088,-0.5872,-0.2932,3.136,2.712,10.201,-67.80,-122.50,0.0000,0.0000,0.0000,-0.192,-0.455,1.926,-0.43,-0.18,-17.09,26.95,44.04
5699,3300.00,3300.00,3300.00,0.6733,0.7834,0.0569,19.531,29.193,-18.735,-31.55,87.99,0.8582,-0.5317,-0.2722,8.082,3.323,9.697,-67.46,-122.19,0.0000,0.0000,0.0000,-0.192,-0.455,1.926,-0.43,-0.18,-16.66,27.13,43.79
5714,3300.00,3300.00,3300.00,0.6731,0.8040,0.0688,12.309,25.605,-20.308,-31.35,88.11,0.8635,-0.5295,-0.2759,11.563,1.522,11.316,-67.20,-121.94,0.0000,0.0000,0.0000,-0.192,-0.455,1.926,-0.43,-0.18,-16.25,27.29,43.54
5738,3300.00,3300.00,3300.00,0.6604,0.7717,0.0808,3.012,21.651,-21.804,-31.01,88.10,0.8223,-0.5247,-0.2869,11.151,6.773,16.262,-66.77,-121.60,0.0000,0.0000,0.0000,-0.192,-0.455,1.926,-0.43,-0.18,-15.86,27.41,43.27
5752,3300.00,3300.00,3300.00,0.6677,0.7615,0.0723,1.241,24.903,-22.827,-30.86,88.05,0.8179,-0.5291,-0.2808,14.586,2.300,16.247,-66.48,-121.33,0.0000,0.0000,0.0000,-0.192,-0.455,1.926,-0.43,-0.18,-15.49,27.51,43.01
5777,3300.00,3300.00,3300.00,0.6743,0.7747,0.0591,7.118,26.765,-21.590,-30.42,88.17,0.8403,-0.5515,-0.2549,16.037,-6.540,13.132,-66.39,-120.81,0.0000,0.0000,0.0000,-0.192,-0.455,1.926,-0.43,-0.18,-15.18,27.58,42.75
5791,3300.00,3300.00,3300.00,0.6367,0.7913,0.0947,4.859,28.491,-23.376,-30.18,88.14,0.8308,-0.5710,-0.2390,21.930,-5.700,10.125,-66.21,-120.34,0.0000,0.0000,0.0000,-0.192,-0.455,1.926,-0.43,-0.18,-14.88,27.62,42.50
5816,3300.00,3300.00,3300.00,0.6143,0.7754,0.1152,-4.653,22.399,-26.445,-29.80,87.90,0.8010,-0.5720,-0.2695,23.869,4.132,14.308,-65.82,-119.66,0.0000,0.0000,0.0000,-0.192,-0.455,1.926,-0.43,-0.18,-14.61,27.63,42.24
5830,3300.00,3300.00,3300.00,0.6331,0.7781,0.0986,-8.317,22.185,-26.812,-29.67,87.68,0.8083,-0.5679,-0.2788,16.418,10.926,20.171,-65.39,-119.36,0.0000,0.0000,0.0000,-0.192,-0.455,1.926,-0.43,-0.18,-14.34,27.64,41.97
5855,3300.00,3300.00,3300.00,0.6282,0.7739,0.1106,-3.187,23.513,-25.972,-29.29,87.48,0.8008,-0.6187,-0.2461,12.846,29.857,20.216,-64.37,-118.90,0.0000,0.0000,0.0000,-0.192,-0.455,1.926,-0.43,-0.18,-14.04,27.61,41.65
5869,3300.00,3300.00,3300.00,0.6387,0.7700,0.1328,0.645,25.223,-28.918,-29.13,87.35,0.7815,-0.6069,-0.2571,17.044,37.537,18.858,-63.55,-118.54,0.0000,0.0000,0.0000,-0.192,-0.455,1.926,-0.43,-0.18,-13.71,27.58,41.29
5894,3300.00,3300.00,3300.00,0.6431,0.7827,0.0950,-2.805,28.872,-31.590,-28.64,87.19,0.8015,-0.5735,-0.2522,17.808,34.453,23.316,-62.49,-118.01,0.0000,0.0000,0.0000,-0.192,-0.455,1.926,-0.43,-0.18,-13.37,27.51,40.88
5908,3300.00,3300.00,3300.00,0.6597,0.7932,0.1072,-4.378,26.414,-33.514,-28.49,87.03,0.7939,-0.5659,-0.2354,20.769,25.934,25.743,-61.92,-117.61,0.0000,0.0000,0.0000,-0.192,-0.455,1.926,-0.43,-0.18,-13.02,27.44,40.46
5933,3300.00,3300.00,3300.00,0.6165,0.7852,0.1262,0.248,36.567,-31.407,-27.79,86.92,0.7798,-0.5684,-0.2290,20.296,7.354,25.529,-61.55,-117.01,0.0000,0.0000,0.0000,-0.192,-0.455,1.926,-0.43,-0.18,-12.72,27.33,40.05
5947,3300.00,3300.00,3300.00,0.6233,0.7920,0.0964,4.096,35.636,-33.621,-27.49,86.90,0.8242,-0.5793,-0.2305,26.876,2.407,23.499,-61.34,-116.53,0.0000,0.0000,0.0000,-0.192,-0.455,1.926,-0.43,-0.18,-12.45,27.20,39.65
5972,3300.00,3300.00,0.00,0.6099,0.8208,0.0969,9.897,40.124,-37.819,-26.70,87.06,0.8228,-0.6487,-0.1982,20.815,15.308,21.987,-60.75,-115.83,0.0000,0.0000,0.0000,-0.192,-0.455,1.926,-0.43,-0.18,-12.21,27.02,39.23
5986,3300.00,3300.00,3300.00,0.5864,0.8018,0.1250,17.485,47.895,-45.437,-26.21,87.19,0.7883,-0.6440,-0.2085,33.075,29.277,20.461,-60.11,-115.21,0.0000,0.0000,0.0000,-0.192,-0.455,1.926,-0.43,-0.18,-11.98,26.83,38.80
6011,3300.00,3300.00,3300.00,0.5857,0.8137,0.1777,-1.279,37.483,-47.911,-25.49,86.97,0.7676,-0.5679,-0.2251,37.853,30.728,26.583,-59.20,-114.23,0.0000,0.0000,0.0000,-0.192,-0.455,1.926,-0.43,-0.18,-11.75,26.59,38.34
6025,3300.00,3300.00,3300.00,0.6023,0.8145,0.1323,-15.141,32.918,-48.033,-25.23,86.63,0.7830,-0.5850,-0.2126,40.311,32.560,33.346,-58.58,-113.57,0.0000,0.0000,0.0000,-0.192,-0.455,1.926,-0.43,-0.18,-11.51,26.36,37.87
6050,3300.00,3300.00,3300.00,0.6023,0.8267,0.1284,-8.546,40.659,-49.453,-24.47,86.32,0.8157,-0.6174,-0.2197,27.426,33.460,39.682,-57.63,-112.83,0.0000,0.0000,0.0000,-0.192,-0.455,1.926,-0.43,-0.18,-11.27,26.09,37.36
6064,3300.00,3300.00,3300.00,0.5854,0.8113,0.0693,-9.446,43.880,-48.109,-24.07,86.16,0.8174,-0.6541,-0.1956,25.182,39.369,39.423,-56.92,-112.35,0.0000,0.0000,0.0000,-0.192,-0.455,1.926,-0.43,-0.18,-11.03,25.81,36.84
6089,3300.00,3300.00,3300.00,0.5596,0.7803,0.1438,-1.095,39.284,-54.170,-23.35,86.00,0.7778,-0.6553,-0.1528,33.624,51.552,37.010,-55.53,-111.36,0.0000,0.0000,0.0000,-0.192,-0.455,1.926,-0.43,-0.18,-10.76,25.49,36.25
6103,1159.63,47.55,3300.00,0.5410,0.8381,0.1772,-3.034,35.086,-58.216,-23.03,85.80,0.7605,-0.6404,-0.1616,42.113,59.918,39.300,-54.55,-110.62,0.0000,0.0000,0.0000,-0.192,-0.455,1.926,-0.43,-0.18,-10.46,25.18,35.64
6128,0.00,0.00,0.00,0.5591,0.8350,0.1289,-2.927,32.017,-71.208,-22.47,85.64,0.7842,-0.6384,-0.1265,42.831,71.934,44.873,-52.73,-109.39,0.0000,0.0000,0.0000,-0.192,-0.455,1.926,-0.43,-0.18,-10.09,24.85,34.95
6142,3300.00,3300.00,3300.00,0.5242,0.8542,0.1633,6.431,41.330,-76.292,-22.05,85.60,0.7644,-0.6729,-0.1169,60.815,74.651,42.934,-51.58,-108.34,0.0000,0.0000,0.0000,-0.192,-0.455,1.926,-0.43,-0.18,-9.70,24.52,34.22
6167,3300.00,3300.00,3300.00,0.5007,0.8357,0.2029,-6.225,45.849,-77.651,-21.11,85.26,0.7170,-0.6262,-0.1345,48.388,60.636,53.132,-50.06,-107.05,0.0000,0.0000,0.0000,-0.192,-0.455,1.926,-0.43,-0.18,-9.30,24.14,33.44
6181,3300.00,3300.00,3300.00,0.5129,0.8708,0.1863,-19.095,41.254,-78.583,-20.71,84.85,0.7356,-0.6399,-0.0935,45.166,60.147,62.018,-49.18,-106.24,0.0000,0.0000,0.0000,-0.192,-0.455,1.926,-0.43,-0.18,-8.89,23.76,32.65
6206,3300.00,3300.00,3300.00,0.5249,0.8232,0.1694,-18.271,26.307,-78.125,-20.30,84.28,0.7544,-0.6602,-0.1184,56.831,49.491,59.132,-47.96,-104.75,0.0000,0.0000,0.0000,-0.192,-0.455,1.926,-0.43,-0.18,-8.45,23.38,31.83
6220,3300.00,3300.00,3300.00,0.4983,0.8999,0.2014,-6.912,34.506,-75.712,-19.97,84.04,0.7300,-0.6907,-0.1094,54.220,53.583,56.507,-47.17,-103.86,0.0000,0.0000,0.0000,-0.192,-0.455,1.926,-0.43,-0.18,-8.01,23.00,31.01
6245,3300.00,3300.00,3300.00,0.5315,0.8562,0.1611,-21.859,39.284,-78.415,-19.25,83.42,0.7544,-0.6907,-0.1033,53.166,62.544,60.888,-45.66,-102.47,0.0000,0.0000,0.0000,-0.192,-0.455,1.926,-0.43,-0.18,-7.55,22.60,30.14
6259,3300.00,3300.00,3300.00,0.4763,0.8899,0.2021,-22.866,36.200,-79.651,-18.91,82.97,0.8420,-0.7114,-0.0513,45.655,72.117,59.300,-44.73,-101.66,0.0000,0.0000,0.0000,-0.192,-0.455,1.926,-0.43,-0.18,-7.08,22.20,29.27
6284,3300.00,3300.00,3300.00,0.4138,0.8276,0.1543,-13.874,35.605,-88.155,-18.20,82.57,0.6770,-0.7029,-0.0361,60.296,73.384,61.865,-42.95,-100.04,0.0000,0.0000,0.0000,-0.192,-0.455,1.926,-0.43,-0.18,-6.56,21.78,28.34
6298,3300.00,3300.00,3300.00,0.4973,0.8440,0.2551,-8.912,28.765,-85.743,-18.02,82.25,0.6638,-0.6792,-0.0784,54.678,81.186,63.789,-41.83,-99.20,0.0000,0.0000,0.0000,-0.192,-0.455,1.926,-0.43,-0.18,-6.02,21.37,27.39
6323,3300.00,3300.00,3300.00,0.4871,0.8787,0.2019,-27.630,22.292,-86.827,-17.69,81.49,0.7024,-0.6919,-0.0420,38.296,90.926,70.888,-39.71,-98.16,0.0000,0.0000,0.0000,-0.192,-0.455,1.926,-0.43,-0.18,-5.39,20.98,26.36
6337,3300.00,3300.00,3300.00,0.5010,0.8438,0.1677,-38.836,24.338,-88.995,-17.59,80.89,0.7168,-0.6917,-0.0056,47.334,86.499,73.209,-38.62,-97.34,0.0000,0.0000,0.0000,-0.192,-0.455,1.926,-0.43,-0.18,-4.73,20.60,25.33
6362,3300.00,3300.00,3300.00,0.4138,0.8767,0.1462,-42.240,36.567,-94.216,-16.86,79.86,0.6790,-0.7654,0.0383,72.510,73.552,78.186,-36.90,-95.39,0.0000,0.0000,0.0000,-0.192,-0.455,1.926,-0.43,-0.18,-4.05,20.20,24.25
6376,3300.00,3300.00,3300.00,0.3940,0.8740,0.2249,-34.851,40.536,-92.918,-16.42,79.28,0.6404,-0.7913,0.1406,86.006,68.636,68.171,-35.97,-93.87,0.0000,0.0000,0.0000,-0.192,-0.455,1.926,-0.43,-0.18,-3.38,19.79,23.18
6401,3300.00,3300.00,3300.00,0.3909,0.8694,0.1960,-21.446,39.086,-100.048,-15.63,78.73,0.7085,-0.7314,0.0806,64.006,104.605,66.155,-33.61,-92.13,0.0000,0.0000,0.0000,-0.192,-0.455,1.926,-0.43,-0.18,-2.65,19.36,22.01
6415,3300.00,3300.00,3300.00,0.3289,0.9358,0.2441,-29.660,36.994,-109.163,-15.17,78.24,0.6602,-0.7153,0.0977,73.747,104.804,57.560,-32.31,-90.89,0.0000,0.0000,0.0000,-0.192,-0.455,1.926,-0.43,-0.18,-1.91,18.93,20.84
6440,3300.00,3300.00,3300.00,0.3618,0.9216,0.2297,-33.584,31.773,-105.911,-14.52,77.39,0.6709,-0.6536,0.0667,52.510,111.445,68.583,-29.89,-89.49,0.0000,0.0000,0.0000,-0.192,-0.455,1.926,-0.43,-0.18,-1.11,18.48,19.59
6454,3300.00,3300.00,3300.00,0.4204,0.9587,0.2158,-35.828,30.445,-97.758,-14.26,76.88,0.6809,-0.7000,0.0693,52.510,90.086,76.842,-28.90,-88.64,0.0000,0.0000,0.0000,-0.192,-0.455,1.926,-0.43,-0.18,-0.30,18.04,18.35
6479,3300.00,3300.00,3300.00,0.4041,0.9434,0.2546,-62.714,32.246,-94.354,-13.65,75.33,0.7920,-0.7881,0.0610,45.716,90.178,90.079,-27.06,-87.48,0.0000,0.0000,0.0000,-0.192,-0.455,1.926,-0.43,-0.18,0.53,17.60,17.06
6493,3300.00,3300.00,3300.00,0.3330,1.0098,0.2004,-56.500,32.613,-97.712,-13.27,74.60,0.8042,-0.7439,0.1021,47.594,81.689,90.323,-26.31,-86.71,0.0000,0.0000,0.0000,-0.192,-0.455,1.926,-0.43,-0.18,1.34,17.15,15.82
6518,3300.00,3300.00,3300.00,0.3347,0.9419,0.1431,-73.141,24.185,-98.689,-12.81,72.97,0.6665,-0.7578,0.2217,44.342,78.835,89.743,-24.68,-85.38,0.0000,0.0000,0.0000,-0.192,-0.455,1.926,-0.43,-0.18,2.16,16.71,14.55
6532,3300.00,3300.00,3300.00,0.3127,0.9390,0.1768,-62.805,27.193,-98.231,-12.54,72.22,0.6328,-0.7622,0.2170,52.266,82.163,83.682,-23.80,-84.41,0.0000,0.0000,0.0000,-0.192,-0.455,1.926,-0.43,-0.18,2.98,16.28,13.30
6557,3300.00,3300.00,3300.00,0.2842,0.9443,0.2393,-52.912,31.071,-100.766,-11.86,71.01,0.6428,-0.7776,0.2039,61.014,101.140,70.781,-21.66,-82.76,0.0000,0.0000,0.0000,-0.192,-0.455,1.926,-0.43,-0.18,3.83,15.83,12.00
6571,3300.00,3300.00,3300.00,0.2947,0.9590,0.2490,-52.515,32.964,-109.453,-11.49,70.35,0.6040,-0.8105,0.1899,64.663,108.789,70.598,-20.40,-81.72,0.0000,0.0000,0.0000,-0.192,-0.455,1.926,-0.43,-0.18,4.69,15.39,10.69
6596,3300.00,3300.00,3300.00,0.2200,1.0154,0.3394,-66.347,25.941,-125.102,-10.87,68.78,0.5969,-0.7388,0.2197,78.601,100.193,79.407,-18.34,-79.67,0.0000,0.0000,0.0000,-0.192,-0.455,1.926,-0.43,-0.18,5.59,14.93,9.34
6610,3300.00,3300.00,3300.00,0.2336,0.9539,0.3306,-73.675,14.002,-136.521,-10.71,67.77,0.5564,-0.7710,0.2222,81.227,87.109,97.377,-17.42,-78.39,0.0000,0.0000,0.0000,-0.192,-0.455,1.926,-0.43,-0.18,6.48,14.49,8.01
6635,3300.00,3300.00,3300.00,0.2866,1.0342,0.3052,-111.920,9.315,-91.285,-10.57,65.20,0.6152,-0.7979,0.1975,46.586,70.758,104.094,-16.11,-77.23,0.0000,0.0000,0.0000,-0.192,-0.455,1.926,-0.43,-0.18,7.39,14.08,6.69
6649,3300.00,3300.00,3300.00,0.2432,1.0017,0.2896,-119.675,21.361,-78.720,-10.32,63.68,0.6145,-0.8538,0.2510,38.235,64.438,98.629,-15.57,-76.62,0.0000,0.0000,0.0000,-0.192,-0.455,1.926,-0.43,-0.18,8.26,13.68,5.42
43105,0.00,0.00,0.00,0.0000,0.0000,0.0000,1.088,-2.487,0.486,-10.14,62.42,0.0000,0.0000,0.0000,2.250,-2.585,0.842,-15.28,-75.06,0.0000,0.0000,0.0000,-0.192,-0.455,1.926,-0.43,-0.18,9.07,13.29,4.22
43119,0.00,3300.00,0.00,-0.1821,0.9053,0.6235,1.088,-2.487,0.486,-9.78,62.29,0.1611,-0.8003,0.6099,2.250,-2.585,0.842,-15.19,-74.58,0.0000,0.0000,0.0000,-0.192,-0.455,1.926,-0.43,-0.18,9.81,12.90,3.09
43134,3300.00,3300.00,3300.00,-0.1809,0.9028,0.6191,1.088,-2.487,0.486,-9.43,62.17,0.1602,-0.8022,0.6003,2.250,-2.585,0.842,-15.11,-74.12,0.0000,0.0000,0.0000,-0.192,-0.455,1.926,-0.42,-0.18,10.48,12.52,2.04
43158,3300.00,3300.00,3300.00,-0.1833,0.9050,0.6204,-0.897,2.826,0.104,-8.99,62.02,0.1562,-0.7986,0.5830,-4.284,0.483,1.407,-14.97,-73.82,0.0000,0.0000,0.0000,-0.192,-0.455,1.926,-0.43,-0.18,11.08,12.13,1.06
43172,3300.00,3300.00,3300.00,-0.1863,0.8997,0.6238,-0.790,2.704,-0.369,-8.57,61.87,0.1606,-0.7966,0.5842,-3.658,0.193,1.041,-14.86,-73.47,0.0000,0.0000,0.0000,-0.192,-0.455,1.926,-0.42,-0.18,11.61,11.75,0.13
43197,3300.00,3300.00,3300.00,-0.1882,0.9016,0.6248,-0.622,2.918,-0.247,-8.14,61.73,0.1599,-0.7920,0.5898,-4.116,0.346,1.774,-14.74,-73.17,0.0000,0.0000,0.0000,-0.192,-0.455,1.926,-0.43,-0.18,12.09,11.35,-0.74
43211,3300.00,3300.00,3300.00,-0.1897,0.9075,0.6223,-0.958,2.399,-0.125,-7.75,61.59,0.1577,-0.7981,0.5876,-4.544,0.697,1.529,-14.61,-72.84,0.0000,0.0000,0.0000,-0.192,-0.455,1.926,-0.42,-0.18,12.52,10.96,-1.55
43236,3300.00,3300.00,3300.00,-0.1833,0.9053,0.6252,-1.065,2.445,-0.109,-7.34,61.44,0.1494,-0.7983,0.5938,-3.689,0.911,1.545,-14.47,-72.54,0.0000,0.0000,0.0000,-0.192,-0.455,1.926,-0.43,-0.18,12.89,10.57,-2.32
43250,3300.00,3300.00,3300.00,-0.1873,0.9006,0.6191,-0.668,2.414,0.624,-6.97,61.31,0.1555,-0.8018,0.5942,-3.353,0.010,1.804,-14.36,-72.21,0.0000,0.0000,0.0000,-0.192,-0.455,1.926,-0.42,-0.18,13.23,10.18,-3.05
43275,3300.00,3300.00,3300.00,-0.1873,0.8999,0.6206,-1.111,2.628,0.089,-6.57,61.17,0.1560,-0.7954,0.5940,-4.070,0.422,2.094,-14.24,-71.92,0.0000,0.0000,0.0000,-0.192,-0.455,1.926,-0.43,-0.18,13.51,9.79,-3.73
43289,3300.00,3300.00,3300.00,-0.1848,0.9021,0.6230,-0.943,3.147,0.349,-6.20,61.04,0.1538,-0.7971,0.5906,-3.994,1.262,1.926,-14.11,-71.61,0.0000,0.0000,0.0000,-0.192,-0.455,1.926,-0.42,-0.18,13.77,9.40,-4.37
43314,3300.00,3300.00,3300.00,-0.1868,0.9082,0.6277,-0.698,3.147,0.120,-5.81,60.91,0.1624,-0.7952,0.5913,-4.284,1.293,2.232,-13.98,-71.35,0.0000,0.0000,0.0000,-0.192,-0.455,1.926,-0.43,-0.18,13.98,9.01,-4.98
43328,3300.00,3300.00,3300.00,-0.1860,0.9031,0.6121,-0.637,2.582,-0.354,-5.46,60.80,0.1582,-0.7966,0.5991,-3.933,1.033,1.346,-13.87,-71.04,0.0000,0.0000,0.0000,-0.192,-0.455,1.926,-0.43,-0.18,14.17,8.62,-5.55
43353,3300.00,3300.00,3300.00,-0.1870,0.9092,0.6174,-1.584,2.109,0.028,-5.11,60.66,0.1599,-0.7959,0.5906,-4.223,0.605,1.560,-13.76,-70.79,0.0000,0.0000,0.0000,-0.192,-0.455,1.926,-0.43,-0.18,14.32,8.23,-6.09
43367,3300.00,3300.00,3300.00,-0.1858,0.9084,0.6152,-0.851,1.941,-0.445,-4.79,60.55,0.1619,-0.7925,0.5930,-4.513,0.682,1.942,-13.66,-70.50,0.0000,0.0000,0.0000,-0.192,-0.455,1.926,-0.43,-0.18,14.45,7.85,-6.60
43392,3300.00,3300.00,3300.00,-0.1875,0.9036,0.6216,-0.912,2.536,-0.018,-4.44,60.43,0.1626,-0.7927,0.5979,-4.284,0.224,1.560,-13.57,-70.25,0.0000,0.0000,0.0000,-0.192,-0.455,1.926,-0.43,-0.18,14.55,7.47,-7.08
43406,3300.00,3300.00,3300.00,-0.1912,0.9038,0.6130,-0.912,2.384,0.288,-4.12,60.33,0.1594,-0.7910,0.5906,-4.559,0.590,2.125,-13.47,-69.98,0.0000,0.0000,0.0000,-0.192,-0.455,1.926,-0.43,-0.18,14.63,7.10,-7.53
43431,3300.00,3300.00,3300.00,-0.1909,0.9062,0.6169,-1.477,2.429,-0.308,-3.78,60.20,0.1589,-0.7891,0.5916,-4.452,0.422,1.942,-13.38,-69.75,0.0000,0.0000,0.0000,-0.192,-0.455,1.926,-0.43,-0.18,14.69,6.73,-7.96
43445,3300.00,3300.00,3300.00,-0.1885,0.9077,0.6162,-1.462,1.513,0.013,-3.49,60.09,0.1626,-0.7913,0.5962,-5.169,1.079,1.590,-13.28,-69.49,0.0000,0.0000,0.0000,-0.192,-0.455,1.926,-0.43,-0.18,14.72,6.36,-8.36
43470,3300.00,3300.00,3300.00,-0.1836,0.9050,0.6187,-2.210,1.101,-0.338,-3.20,59.95,0.1592,-0.7996,0.5940,-5.276,0.682,1.896,-13.18,-69.29,0.0000,0.0000,0.0000,-0.192,-0.455,1.926,-0.43,-0.18,14.75,6.00,-8.75
43484,3300.00,3300.00,3300.00,-0.1897,0.9021,0.6165,-2.653,1.727,0.639,-2.92,59.83,0.1589,-0.7903,0.5967,-5.460,0.346,1.331,-13.09,-69.04,0.0000,0.0000,0.0000,-0.192,-0.455,1.926,-0.43,-0.18,14.75,5.65,-9.11
43509,3300.00,3300.00,3300.00,-0.1838,0.9026,0.6199,-0.912,2.231,-0.140,-2.61,59.72,0.1572,-0.7935,0.5999,-5.582,0.697,1.697,-13.00,-68.85,0.0000,0.0000,0.0000,-0.192,-0.455,1.926,-0.43,-0.18,14.75,5.29,-9.45
43523,3300.00,3300.00,3300.00,-0.1890,0.9055,0.6121,-1.340,3.025,-0.812,-2.32,59.62,0.1580,-0.7954,0.5962,-5.918,0.529,1.300,-12.91,-68.62,0.0000,0.0000,0.0000,-0.192,-0.455,1.926,-0.43,-0.18,14.72,4.95,-9.78
43547,3300.00,3300.00,3300.00,-0.1853,0.9070,0.6230,-1.889,1.941,-0.201,-2.04,59.50,0.1619,-0.7964,0.5901,-5.933,1.170,1.377,-12.81,-68.46,0.0000,0.0000,0.0000,-0.192,-0.455,1.926,-0.43,-0.18,14.69,4.60,-10.09
43562,3300.00,3300.00,3300.00,-0.1826,0.9021,0.6208,-2.332,1.529,0.486,-1.79,59.38,0.1611,-0.7937,0.6008,-5.505,0.819,1.667,-12.72,-68.23,0.0000,0.0000,0.0000,-0.192,-0.455,1.926,-0.43,-0.18,14.65,4.27,-10.38
43586,3300.00,3300.00,3300.00,-0.1853,0.9014,0.6277,-2.866,1.346,0.501,-1.53,59.23,0.1560,-0.7996,0.5945,-6.101,0.117,2.308,-12.64,-68.08,0.0000,0.0000,0.0000,-0.192,-0.455,1.926,-0.43,-0.18,14.60,3.94,-10.66
43601,3300.00,3300.00,3300.00,-0.1858,0.8984,0.6194,-1.385,2.781,-0.277,-1.26,59.13,0.1570,-0.7949,0.5908,-5.566,1.369,2.094,-12.55,-67.86,0.0000,0.0000,0.0000,-0.192,-0.455,1.926,-0.43,-0.18,14.54,3.61,-10.93
43625,3300.00,3300.00,3300.00,-0.1843,0.9045,0.6282,-0.836,2.567,-0.583,-0.99,59.03,0.1785,-0.7998,0.5867,-4.895,1.903,1.239,-12.46,-67.70,0.0000,0.0000,0.0000,-0.192,-0.455,1.926,-0.43,-0.18,14.47,3.29,-11.18
43640,3300.00,3300.00,3300.00,-0.1924,0.9028,0.6296,-1.279,2.918,0.196,-0.73,58.94,0.1453,-0.7942,0.5928,-3.933,1.751,2.400,-12.35,-67.46,0.0000,0.0000,0.0000,-0.192,-0.455,1.926,-0.43,-0.18,14.39,2.97,-11.43
43664,3300.00,3300.00,3300.00,-0.1851,0.9058,0.6252,-2.179,1.956,0.196,-0.48,58.81,0.1619,-0.7954,0.5994,-4.391,1.705,2.781,-12.25,-67.28,0.0000,0.0000,0.0000,-0.192,-0.455,1.926,-0.43,-0.18,14.31,2.65,-11.66
43679,3300.00,3300.00,3300.00,-0.1875,0.9043,0.6165,-1.798,1.712,0.517,-0.25,58.73,0.1577,-0.7961,0.5857,-5.337,-0.540,1.987,-12.19,-67.08,0.0000,0.0000,0.0000,-0.192,-0.455,1.926,-0.43,-0.18,14.23,2.35,-11.88
43703,3300.00,3300.00,3300.00,-0.1809,0.9004,0.6133,-1.721,2.826,0.059,0.01,58.63,0.1538,-0.7991,0.5925,-4.788,-0.875,2.262,-12.15,-66.92,0.0000,0.0000,0.0000,-0.192,-0.455,1.926,-0.43,-0.18,14.13,2.04,-12.09
43718,3300.00,3300.00,3300.00,-0.1797,0.9001,0.6189,-0.637,3.498,0.043,0.25,58.55,0.1616,-0.8005,0.5972,-4.605,0.422,1.850,-12.08,-66.72,0.0000,0.0000,0.0000,-0.192,-0.455,1.926,-0.43,-0.18,14.03,1.74,-12.29
43742,3300.00,3300.00,3300.00,-0.1885,0.9031,0.6204,-1.263,2.491,0.486,0.50,58.46,0.1548,-0.7952,0.5852,-5.139,0.407,2.201,-12.01,-66.58,0.0000,0.0000,0.0000,-0.192,-0.455,1.926,-0.43,-0.18,13.93,1.44,-12.48
43756,3300.00,3300.00,3300.00,-0.1848,0.8982,0.6235,-0.363,1.971,0.135,0.71,58.39,0.1594,-0.7917,0.5879,-4.971,0.285,2.033,-11.95,-66.39,0.0000,0.0000,0.0000,-0.192,-0.455,1.926,-0.43,-0.18,13.82,1.15,-12.66
43781,3300.00,3300.00,3300.00,-0.1890,0.9062,0.6177,-1.355,1.727,-0.063,0.93,58.31,0.1660,-0.7986,0.5908,-5.063,1.064,1.835,-11.87,-66.25,0.0000,0.0000,0.0000,-0.192,-0.455,1.926,-0.43,-0.18,13.71,0.87,-12.84
43796,3300.00,3300.00,3300.00,-0.1855,0.9033,0.6143,-1.187,1.880,-0.506,1.13,58.24,0.1587,-0.8010,0.5933,-5.154,1.812,1.957,-11.79,-66.07,0.0000,0.0000,0.0000,-0.192,-0.455,1.926,-0.43,-0.18,13.59,0.59,-13.00
43820,3300.00,3300.00,3300.00,-0.1890,0.9055,0.6221,-1.050,1.666,0.425,1.35,58.16,0.1587,-0.7930,0.5928,-4.482,1.002,1.774,-11.71,-65.92,0.0000,0.0000,0.0000,-0.192,-0.455,1.926,-0.43,-0.18,13.48,0.31,-13.17
43834,3300.00,3300.00,3300.00,-0.1868,0.9053,0.6157,-1.111,1.987,-0.048,1.54,58.10,0.1621,-0.7944,0.5940,-5.002,1.094,1.804,-11.65,-65.73,0.0000,0.0000,0.0000,-0.192,-0.455,1.926,-0.43,-0.18,13.36,0.04,-13.32
43859,3300.00,3300.00,3300.00,-0.1829,0.9084,0.6165,-1.401,1.147,-0.079,1.73,58.02,0.1619,-0.7991,0.5952,-5.612,1.048,1.987,-11.57,-65.62,0.0000,0.0000,0.0000,-0.192,-0.455,1.926,-0.43,-0.18,13.25,-0.22,-13.47
43873,3300.00,3300.00,3300.00,-0.1846,0.9065,0.6174,-2.240,1.254,0.517,1.90,57.94,0.1582,-0.7881,0.5901,-4.421,0.865,1.270,-11.51,-65.43,0.0000,0.0000,0.0000,-0.192,-0.455,1.926,-0.43,-0.18,13.13,-0.48,-13.61
43898,3300.00,3300.00,3300.00,-0.1870,0.9021,0.6216,-1.355,1.071,0.089,2.08,57.86,0.1536,-0.7959,0.5925,-4.513,0.438,1.178,-11.45,-65.30,0.0000,0.0000,0.0000,-0.192,-0.455,1.926,-0.43,-0.18,13.02,-0.73,-13.75
43912,3300.00,3300.00,3300.00,-0.1829,0.9006,0.6162,-0.592,1.697,-0.537,2.25,57.80,0.1536,-0.7993,0.5920,-5.093,0.071,1.514,-11.39,-65.14,0.0000,0.0000,0.0000,-0.192,-0.455,1.926,-0.43,-0.18,12.90,-0.98,-13.88
43937,3300.00,3300.00,3300.00,-0.1831,0.9043,0.6187,-0.500,2.888,-0.918,2.47,57.75,0.1577,-0.7986,0.5896,-4.299,1.323,2.018,-11.32,-65.01,0.0000,0.0000,0.0000,-0.192,-0.455,1.926,-0.43,-0.18,12.79,-1.22,-14.01
43951,3300.00,3300.00,3300.00,-0.1843,0.9048,0.6140,-1.141,3.544,-0.384,2.66,57.69,0.1594,-0.8027,0.5916,-4.421,0.086,1.453,-11.27,-64.84,0.0000,0.0000,0.0000,-0.192,-0.455,1.926,-0.43,-0.18,12.67,-1.46,-14.13
43976,3300.00,3300.00,3300.00,-0.1902,0.9023,0.6223,-1.508,2.475,0.150,2.86,57.61,0.1541,-0.7961,0.5955,-3.185,1.247,1.865,-11.19,-64.69,0.0000,0.0000,0.0000,-0.192,-0.455,1.926,-0.43,-0.18,12.55,-1.70,-14.25
43990,3300.00,3300.00,3300.00,-0.1855,0.9036,0.6292,-1.675,1.468,0.013,3.02,57.54,0.1567,-0.7998,0.5981,-4.391,0.392,2.003,-11.14,-64.52,0.0000,0.0000,0.0000,-0.192,-0.455,1.926,-0.43,-0.18,12.43,-1.93,-14.36
44015,3300.00,3300.00,3300.00,-0.1765,0.8965,0.6204,-2.271,2.063,-0.231,3.19,57.44,0.1577,-0.7839,0.5818,-4.818,-1.150,0.751,-11.13,-64.41,0.0000,0.0000,0.0000,-0.192,-0.455,1.926,-0.43,-0.18,12.31,-2.16,-14.47
44029,3300.00,3300.00,3300.00,-0.1885,0.9021,0.6252,-1.126,2.811,-0.308,3.36,57.38,0.1489,-0.7961,0.6013,-3.887,-0.234,0.797,-11.08,-64.24,0.0000,0.0000,0.0000,-0.192,-0.455,1.926,-0.43,-0.18,12.19,-2.38,-14.57
44054,3300.00,3300.00,3300.00,-0.1880,0.9031,0.6255,0.615,3.987,0.074,3.59,57.35,0.1558,-0.7998,0.5886,-2.910,-0.112,1.148,-11.04,-64.10,0.0000,0.0000,0.0000,-0.192,-0.455,1.926,-0.43,-0.18,12.07,-2.61,-14.67
44068,3300.00,3300.00,3300.00,-0.1846,0.9041,0.6221,0.462,4.277,-0.354,3.76,57.32,0.1580,-0.8047,0.5977,-3.246,-0.662,1.835,-11.01,-63.93,0.0000,0.0000,0.0000,-0.192,-0.455,1.926,-0.43,-0.18,11.94,-2.83,-14.77
44092,3300.00,3300.00,3300.00,-0.1851,0.9031,0.6282,-0.286,2.491,0.104,3.94,57.27,0.1594,-0.7969,0.5920,-3.337,-1.181,0.903,-11.00,-63.80,0.0000,0.0000,0.0000,-0.192,-0.455,1.926,-0.43,-0.18,11.81,-3.05,-14.86
44107,3300.00,3300.00,3300.00,-0.1868,0.9041,0.6152,-0.622,2.643,0.028,4.09,57.23,0.1572,-0.7942,0.5891,-2.574,0.804,1.438,-10.95,-63.63,0.0000,0.0000,0.0000,-0.192,-0.455,1.926,-0.43,-0.18,11.68,-3.26,-14.94
44131,3300.00,3300.00,3300.00,-0.1897,0.9023,0.6182,-1.187,2.857,0.379,4.28,57.17,0.1670,-0.8005,0.5938,-3.795,1.583,1.194,-10.88,-63.51,0.0000,0.0000,0.0000,-0.192,-0.455,1.926,-0.43,-0.18,11.56,-3.47,-15.02
44146,3300.00,3300.00,3300.00,-0.1802,0.9050,0.6050,-0.836,2.185,-0.109,4.41,57.14,0.1572,-0.7891,0.5999,-5.032,0.254,1.255,-10.84,-63.37,0.0000,0.0000,0.0000,-0.192,-0.455,1.926,-0.43,-0.18,11.43,-3.67,-15.11
44170,3300.00,3300.00,3300.00,-0.1912,0.9089,0.6230,-0.744,2.674,0.135,4.58,57.09,0.1638,-0.7969,0.5972,-4.131,1.231,1.835,-10.78,-63.27,0.0000,0.0000,0.0000,-0.192,-0.455,1.926,-0.43,-0.18,11.31,-3.88,-15.19
44185,3300.00,3300.00,3300.00,-0.1877,0.9067,0.6123,-1.462,2.200,-0.338,4.72,57.05,0.1650,-0.7920,0.5930,-5.276,0.575,1.667,-10.74,-63.14,0.0000,0.0000,0.0000,-0.192,-0.455,1.926,-0.43,-0.18,11.19,-4.08,-15.26
44209,3300.00,3300.00,3300.00,-0.1909,0.9077,0.6208,-1.645,0.826,0.150,4.84,56.98,0.1672,-0.7937,0.5908,-5.169,0.819,1.239,-10.70,-63.07,0.0000,0.0000,0.0000,-0.192,-0.455,1.926,-0.43,-0.18,11.07,-4.27,-15.34
44224,3300.00,3300.00,3300.00,-0.1870,0.9031,0.6182,-1.752,1.468,-0.063,4.96,56.93,0.1606,-0.8010,0.5940,-4.208,1.018,1.728,-10.66,-62.93,0.0000,0.0000,0.0000,-0.192,-0.455,1.926,-0.43,-0.18,10.95,-4.46,-15.41
44248,3300.00,3300.00,3300.00,-0.1870,0.9028,0.6169,-0.637,1.849,-0.140,5.10,56.89,0.1553,-0.7954,0.5986,-5.124,-0.555,1.056,-10.63,-62.86,0.0000,0.0000,0.0000,-0.192,-0.455,1.926,-0.43,-0.18,10.84,-4.64,-15.48
44262,3300.00,3300.00,3300.00,-0.1868,0.9033,0.6216,0.172,2.628,-0.445,5.22,56.86,0.1570,-0.7971,0.5898,-3.169,0.972,1.239,-10.59,-62.71,0.0000,0.0000,0.0000,-0.192,-0.455,1.926,-0.43,-0.18,10.72,-4.82,-15.54
44287,3300.00,3300.00,3300.00,-0.1841,0.9048,0.6252,0.599,2.979,-0.476,5.38,56.85,0.1541,-0.8003,0.5974,-3.276,-0.036,1.041,-10.55,-62.60,0.0000,0.0000,0.0000,-0.192,-0.455,1.926,-0.43,-0.18,10.61,-5.00,-15.61
44301,3300.00,3300.00,3300.00,-0.1914,0.9036,0.6267,0.538,3.132,-0.231,5.52,56.82,0.1528,-0.7927,0.5952,-3.032,-0.265,0.873,-10.52,-62.46,0.0000,0.0000,0.0000,-0.192,-0.455,1.926,-0.43,-0.18,10.49,-5.18,-15.67
44326,3300.00,3300.00,3300.00,-0.1887,0.9136,0.6191,-0.179,3.788,0.242,5.69,56.80,0.1589,-0.7944,0.5972,-2.940,0.300,1.819,-10.48,-62.34,0.0000,0.0000,0.0000,-0.192,-0.455,1.926,-0.43,-0.18,10.38,-5.35,-15.73
44340,3300.00,3300.00,3300.00,-0.1897,0.9033,0.6262,-0.592,3.239,0.303,5.82,56.76,0.1501,-0.7961,0.5920,-4.666,-0.509,1.529,-10.45,-62.23,0.0000,0.0000,0.0000,-0.192,-0.455,1.926,-0.43,-0.18,10.27,-5.53,-15.79
44365,3300.00,3300.00,3300.00,-0.1758,0.9041,0.6267,-0.821,3.025,0.563,5.96,56.71,0.1545,-0.7974,0.5947,-4.208,0.086,1.392,-10.42,-62.15,0.0000,0.0000,0.0000,-0.192,-0.455,1.926,-0.43,-0.18,10.15,-5.70,-15.85
44379,3300.00,3300.00,3300.00,-0.1794,0.8994,0.6196,-2.240,3.132,-0.094,6.07,56.65,0.1531,-0.8025,0.5874,-3.017,0.926,1.697,-10.37,-62.02,0.0000,0.0000,0.0000,-0.192,-0.455,1.926,-0.43,-0.18,10.04,-5.86,-15.90
44404,3300.00,3300.00,3300.00,-0.1807,0.9036,0.6318,0.554,4.460,-0.155,6.24,56.64,0.1602,-0.7986,0.5984,-3.689,1.506,1.484,-10.31,-61.94,0.0000,0.0000,0.0000,-0.192,-0.455,1.926,-0.43,-0.18,9.93,-6.03,-15.96
44418,3300.00,3300.00,3300.00,-0.1807,0.9023,0.6267,0.111,5.040,0.227,6.37,56.61,0.1570,-0.7952,0.6003,-3.429,-0.998,2.354,-10.30,-61.81,0.0000,0.0000,0.0000,-0.192,-0.455,1.926,-0.43,-0.18,9.82,-6.19,-16.01
44443,3300.00,3300.00,3300.00,-0.1821,0.9006,0.6172,0.218,4.384,-0.384,6.54,56.59,0.1592,-0.7966,0.5925,-3.521,-1.379,1.865,-10.31,-61.72,0.0000,0.0000,0.0000,-0.192,-0.455,1.926,-0.43,-0.18,9.71,-6.36,-16.06
44457,3300.00,3300.00,3300.00,-0.1899,0.9019,0.6248,0.492,3.605,-0.491,6.66,56.57,0.1545,-0.7988,0.5967,-2.818,0.865,1.316,-10.27,-61.59,0.0000,0.0000,0.0000,-0.192,-0.455,1.926,-0.43,-0.18,9.59,-6.52,-16.11
44482,3300.00,3300.00,3300.00,-0.1863,0.9026,0.6257,1.576,3.300,-0.140,6.80,56.59,0.1602,-0.7961,0.5918,-2.299,0.041,0.400,-10.24,-61.48,0.0000,0.0000,0.0000,-0.192,-0.455,1.926,-0.43,-0.18,9.48,-6.68,-16.16
44496,3300.00,3300.00,3300.00,-0.1868,0.9075,0.6191,1.729,3.361,0.120,6.90,56.59,0.1572,-0.7939,0.5991,-3.063,-0.280,0.003,-10.22,-61.36,0.0000,0.0000,0.0000,-0.192,-0.455,1.926,-0.43,-0.18,9.37,-6.83,-16.20
44521,3300.00,3300.00,3300.00,-0.1799,0.9050,0.6121,1.164,3.086,0.685,7.03,56.61,0.1626,-0.7864,0.5955,-2.940,-0.952,0.048,-10.23,-61.26,0.0000,0.0000,0.0000,-0.192,-0.455,1.926,-0.43,-0.18,9.26,-6.99,-16.25
44535,3300.00,3300.00,3300.00,-0.1816,0.9116,0.6047,1.332,3.055,-0.048,7.12,56.62,0.1624,-0.7898,0.5986,-2.788,-1.059,0.537,-10.22,-61.13,0.0000,0.0000,0.0000,-0.192,-0.455,1.926,-0.43,-0.18,9.15,-7.13,-16.28
44560,3300.00,3300.00,3300.00,-0.1904,0.9114,0.6121,0.477,4.109,0.379,7.27,56.62,0.1721,-0.7886,0.6038,-3.322,-0.127,1.453,-10.22,-61.04,0.0000,0.0000,0.0000,-0.192,-0.455,1.926,-0.43,-0.18,9.04,-7.28,-16.32
44574,3300.00,3300.00,3300.00,-0.1973,0.9114,0.6130,0.248,3.132,-0.323,7.37,56.62,0.1702,-0.7891,0.6106,-3.521,0.361,1.484,-10.20,-60.91,0.0000,0.0000,0.0000,-0.192,-0.455,1.926,-0.43,-0.18,8.93,-7.43,-16.36
44599,3300.00,3300.00,3300.00,-0.1992,0.9153,0.6091,-0.912,2.597,-0.460,7.49,56.59,0.1665,-0.7825,0.6174,-5.154,0.209,1.239,-10.18,-60.85,0.0000,0.0000,0.0000,-0.192,-0.455,1.926,-0.43,-0.18,8.82,-7.57,-16.39
44613,3300.00,3300.00,3300.00,-0.1951,0.9099,0.6116,-1.675,1.727,-0.857,7.57,56.56,0.1597,-0.7859,0.6047,-5.307,0.804,1.117,-10.15,-60.76,0.0000,0.0000,0.0000,-0.192,-0.455,1.926,-0.43,-0.18,8.71,-7.71,-16.42
44638,3300.00,3300.00,3300.00,-0.1912,0.9077,0.6125,-2.225,1.040,0.395,7.64,56.49,0.1633,-0.7812,0.5938,-5.719,0.514,1.728,-10.12,-60.73,0.0000,0.0000,0.0000,-0.192,-0.455,1.926,-0.43,-0.18,8.61,-7.85,-16.46
44652,3300.00,3300.00,3300.00,-0.1924,0.9084,0.6035,-2.424,1.452,0.471,7.71,56.45,0.1624,-0.7822,0.6040,-6.177,0.896,1.942,-10.10,-60.65,0.0000,0.0000,0.0000,-0.192,-0.455,1.926,-0.43,-0.18,8.51,-7.98,-16.49
44677,3300.00,3300.00,3300.00,-0.1934,0.9075,0.6094,-2.393,3.315,-0.521,7.83,56.39,0.1667,-0.7881,0.6038,-6.925,0.972,2.919,-10.06,-60.66,0.0000,0.0000,0.0000,-0.192,-0.455,1.926,-0.43,-0.18,8.41,-8.11,-16.52
44691,3300.00,3300.00,3300.00,-0.1853,0.9111,0.6152,-3.294,3.132,-0.399,7.91,56.34,0.1694,-0.7886,0.5911,-7.643,1.644,2.934,-10.03,-60.61,0.0000,0.0000,0.0000,-0.192,-0.455,1.926,-0.43,-0.18,8.32,-8.23,-16.56
44716,3300.00,3300.00,3300.00,-0.1943,0.9082,0.6201,-3.019,2.292,-0.552,8.01,56.25,0.1616,-0.7935,0.5984,-8.055,2.102,3.331,-9.97,-60.66,0.0000,0.0000,0.0000,-0.192,-0.455,1.926,-0.43,-0.18,8.23,-8.36,-16.59
44730,3300.00,3300.00,3300.00,-0.1926,0.9089,0.6213,-5.126,0.933,0.028,8.06,56.17,0.1633,-0.7971,0.5962,-9.124,3.323,2.766,-9.91,-60.63,0.0000,0.0000,0.0000,-0.192,-0.455,1.926,-0.43,-0.18,8.15,-8.48,-16.63
44754,3300.00,3300.00,3300.00,-0.1921,0.9109,0.6248,-5.294,-0.319,0.440,8.09,56.03,0.1562,-0.7925,0.6008,-8.757,2.590,2.629,-9.82,-60.69,0.0000,0.0000,0.0000,-0.192,-0.455,1.926,-0.43,-0.18,8.08,-8.59,-16.67
44769,3300.00,3300.00,3300.00,-0.1853,0.9001,0.6191,-4.851,0.216,1.311,8.12,55.95,0.1584,-0.7979,0.5935,-7.429,2.453,3.132,-9.77,-60.65,0.0000,0.0000,0.0000,-0.192,-0.455,1.926,-0.43,-0.18,8.01,-8.70,-16.71
44793,3300.00,3300.00,3300.00,-0.1836,0.9004,0.6196,-4.363,0.536,1.066,8.16,55.83,0.1587,-0.8000,0.5923,-9.643,1.751,2.537,-9.72,-60.74,0.0000,0.0000,0.0000,-0.192,-0.455,1.926,-0.43,-0.18,7.95,-8.80,-16.75
44808,3300.00,3300.00,3300.00,-0.1863,0.9031,0.6150,-3.370,1.880,0.333,8.22,55.78,0.1589,-0.8003,0.5884,-8.482,1.430,2.781,-9.69,-60.71,0.0000,0.0000,0.0000,-0.192,-0.455,1.926,-0.43,-0.18,7.89,-8.90,-16.79
44832,3300.00,3300.00,3300.00,-0.1851,0.9028,0.6204,-1.798,2.842,0.196,8.32,55.73,0.1597,-0.8027,0.5850,-7.673,1.247,2.247,-9.64,-60.76,0.0000,0.0000,0.0000,-0.192,-0.455,1.926,-0.43,-0.18,7.83,-9.00,-16.83
44847,3300.00,3300.00,727.69,-0.1807,0.8975,0.6316,-2.561,1.636,0.166,8.36,55.68,0.1594,-0.8042,0.5864,-6.589,0.575,1.926,-9.63,-60.72,0.0000,0.0000,0.0000,-0.192,-0.455,1.926,-0.43,-0.18,7.78,-9.09,-16.87
44871,3300.00,3300.00,0.00,-0.1782,0.8975,0.6172,-2.317,1.254,0.349,8.41,55.62,0.1592,-0.8013,0.5835,-4.101,0.850,1.102,-9.59,-60.68,0.0000,0.0000,0.0000,-0.192,-0.455,1.926,-0.43,-0.18,7.73,-9.19,-16.91
44886,3300.00,3300.00,984.76,-0.1755,0.8989,0.6211,-1.111,1.269,0.104,8.44,55.60,0.1560,-0.7966,0.5818,-4.055,0.590,0.705,-9.57,-60.60,0.0000,0.0000,0.0000,-0.192,-0.455,1.926,-0.43,-0.18,7.68,-9.27,-16.95
44900,3300.00,3300.00,0.00,-0.1743,0.8989,0.6211,-1.111,1.773,-0.308,8.48,55.58,0.1589,-0.7998,0.5842,-4.666,-0.341,0.384,-9.57,-60.53,0.0000,0.0000,0.0000,-0.192,-0.455,1.926,-0.43,-0.18,7.63,-9.36,-16.98
44925,3300.00,3300.00,0.00,-0.1750,0.9033,0.6106,0.889,3.269,-0.537,8.57,55.61,0.1638,-0.7998,0.5830,-4.238,0.376,0.384,-9.56,-60.50,0.0000,0.0000,0.0000,-0.192,-0.455,1.926,-0.43,-0.18,7.58,-9.44,-17.02
44939,3300.00,3300.00,0.00,-0.1868,0.9021,0.6169,0.492,2.063,-0.369,8.62,55.62,0.1626,-0.7964,0.5881,-3.536,0.758,-0.028,-9.54,-60.41,0.0000,0.0000,0.0000,-0.192,-0.455,1.926,-0.43,-0.18,7.53,-9.52,-17.05
44953,3300.00,3300.00,0.00,-0.1907,0.9097,0.6328,1.088,1.117,-0.705,8.66,55.62,0.1626,-0.7939,0.5962,-3.078,0.468,-0.303,-9.53,-60.31,0.0000,0.0000,0.0000,-0.192,-0.455,1.926,-0.43,-0.18,7.48,-9.60,-17.08
44978,3300.00,3300.00,0.00,-0.2046,0.9116,0.6218,0.325,-0.258,-0.292,8.69,55.63,0.1565,-0.7930,0.6025,-3.337,2.025,-0.654,-9.47,-60.24,0.0000,0.0000,0.0000,-0.192,-0.455,1.926,-0.43,-0.18,7.43,-9.68,-17.11
44992,3300.00,3300.00,0.00,-0.2014,0.9148,0.6250,-1.446,-1.571,0.028,8.70,55.61,0.1580,-0.7883,0.6028,-3.780,3.048,-0.440,-9.42,-60.14,0.0000,0.0000,0.0000,-0.192,-0.455,1.926,-0.43,-0.18,7.40,-9.75,-17.15
45007,3300.00,3300.00,0.00,-0.2039,0.9092,0.6218,-1.614,-1.204,0.486,8.72,55.59,0.1523,-0.7910,0.6055,-4.940,3.216,-0.196,-9.36,-60.06,0.0000,0.0000,0.0000,-0.192,-0.455,1.926,-0.43,-0.18,7.37,-9.82,-17.18
45031,3300.00,3300.00,0.00,-0.2007,0.9050,0.6155,-1.248,-0.044,-0.827,8.75,55.56,0.1443,-0.8015,0.6018,-6.116,3.522,1.392,-9.25,-60.07,0.0000,0.0000,0.0000,-0.192,-0.455,1.926,-0.43,-0.18,7.34,-9.88,-17.22
45046,3300.00,3300.00,0.00,-0.1890,0.9048,0.6282,-0.851,1.010,-0.735,8.79,55.54,0.1479,-0.8030,0.6040,-5.811,2.209,1.484,-9.20,-60.01,0.0000,0.0000,0.0000,-0.192,-0.455,1.926,-0.43,-0.18,7.32,-9.95,-17.27
45070,3300.00,3300.00,0.00,-0.1885,0.8997,0.6270,-0.683,2.949,-0.598,8.88,55.52,0.1470,-0.8027,0.5952,-5.002,1.354,2.003,-9.15,-60.00,0.0000,0.0000,0.0000,-0.192,-0.455,1.926,-0.43,-0.18,7.30,-10.01,-17.31
45085,3300.00,3300.00,0.00,-0.1919,0.9050,0.6255,0.477,3.834,-0.689,8.95,55.52,0.1470,-0.8015,0.5935,-4.818,1.170,2.613,-9.12,-59.94,0.0000,0.0000,0.0000,-0.192,-0.455,1.926,-0.43,-0.18,7.27,-10.08,-17.35
45099,3300.00,3300.00,0.00,-0.1904,0.9031,0.6345,-0.454,4.139,-0.827,9.03,55.50,0.1533,-0.7969,0.5947,-4.192,1.552,3.300,-9.09,-59.86,0.0000,0.0000,0.0000,-0.192,-0.455,1.926,-0.42,-0.18,7.25,-10.14,-17.39
45124,3300.00,3300.00,0.00,-0.1885,0.9016,0.6316,-2.256,4.246,0.349,9.14,55.44,0.1550,-0.8042,0.5862,-5.841,0.163,3.117,-9.08,-59.88,0.0000,0.0000,0.0000,-0.192,-0.455,1.926,-0.43,-0.18,7.22,-10.21,-17.43
45138,3300.00,3300.00,0.00,-0.1809,0.8950,0.6328,0.767,3.483,0.104,9.20,55.44,0.1519,-0.8000,0.5923,-5.612,0.285,3.270,-9.07,-59.83,0.0000,0.0000,0.0000,-0.192,-0.455,1.926,-0.42,-0.18,7.18,-10.28,-17.46
45152,3300.00,3300.00,0.00,-0.1790,0.8975,0.6243,0.294,3.040,0.547,9.24,55.44,0.1582,-0.8015,0.5801,-4.055,0.544,2.400,-9.06,-59.78,0.0000,0.0000,0.0000,-0.192,-0.455,1.926,-0.42,-0.18,7.15,-10.35,-17.50
45177,3300.00,3300.00,0.00,-0.1709,0.8958,0.6187,0.859,3.117,1.570,9.31,55.45,0.1616,-0.8008,0.5784,-2.818,0.010,1.972,-9.07,-59.73,0.0000,0.0000,0.0000,-0.192,-0.455,1.926,-0.42,-0.18,7.12,-10.41,-17.53
45191,3300.00,3300.00,0.00,-0.1711,0.8970,0.6162,2.386,3.452,0.227,9.35,55.49,0.1643,-0.8042,0.5803,-1.307,0.270,1.758,-9.07,-59.64,0.0000,0.0000,0.0000,-0.192,-0.455,1.926,-0.42,-0.18,7.08,-10.48,-17.56
45206,3300.00,3300.00,0.00,-0.1675,0.8979,0.6184,2.355,4.811,0.104,9.41,55.52,0.1650,-0.8005,0.5786,-0.910,-0.372,1.331,-9.08,-59.54,0.0000,0.0000,0.0000,-0.192,-0.455,1.926,-0.42,-0.18,7.04,-10.54,-17.58
45230,3300.00,3300.00,0.00,-0.1606,0.9011,0.6152,-1.996,4.277,0.608,9.49,55.48,0.1682,-0.8086,0.5630,-0.086,-1.654,1.255,-9.14,-59.46,0.0000,0.0000,0.0000,-0.192,-0.455,1.926,-0.42,-0.18,7.00,-10.61,-17.60
45245,3300.00,3300.00,0.00,-0.1763,0.9082,0.6128,3.744,4.170,-1.865,9.54,55.54,0.1777,-0.7893,0.5771,-0.376,-1.822,1.819,-9.19,-59.35,0.0000,0.0000,0.0000,-0.192,-0.455,1.926,-0.42,-0.18,6.95,-10.67,-17.62
45269,3300.00,3300.00,0.00,-0.1748,0.9099,0.6165,-1.645,1.284,2.120,9.56,55.51,0.1714,-0.7910,0.5886,-3.536,-1.959,1.606,-9.25,-59.32,0.0000,0.0000,0.0000,-0.192,-0.455,1.926,-0.42,-0.18,6.90,-10.73,-17.63
45284,3300.00,3300.00,0.00,-0.1770,0.9080,0.6194,-3.370,1.513,1.891,9.57,55.46,0.1726,-0.7954,0.5925,-4.376,-0.799,2.613,-9.27,-59.26,0.0000,0.0000,0.0000,-0.192,-0.455,1.926,-0.42,-0.18,6.85,-10.79,-17.64
45308,3300.00,3300.00,0.00,-0.1899,0.9055,0.6147,-2.530,2.292,0.883,9.64,55.41,0.1555,-0.7986,0.5955,-4.024,-0.524,2.079,-9.27,-59.23,0.0000,0.0000,0.0000,-0.192,-0.455,1.926,-0.42,-0.18,6.80,-10.85,-17.65
45322,3300.00,3300.00,0.00,-0.1902,0.9014,0.6165,-4.149,1.544,0.395,9.66,55.36,0.1545,-0.8042,0.5994,-3.979,-0.616,2.476,-9.27,-59.17,0.0000,0.0000,0.0000,-0.192,-0.455,1.926,-0.42,-0.18,6.75,-10.91,-17.65
45347,3300.00,3300.00,0.00,-0.1904,0.8999,0.6226,-0.912,4.063,-0.262,9.76,55.33,0.1484,-0.7991,0.5999,-2.086,-1.471,0.797,-9.29,-59.10,0.0000,0.0000,0.0000,-0.192,-0.455,1.926,-0.42,-0.18,6.69,-10.96,-17.66
45361,3300.00,3300.00,0.00,-0.1897,0.9028,0.6152,-0.164,4.078,-0.109,9.82,55.34,0.1504,-0.8000,0.5999,-0.696,-1.043,-0.165,-9.29,-58.99,0.0000,0.0000,0.0000,-0.192,-0.455,1.926,-0.42,-0.18,6.64,-11.02,-17.66
45386,3300.00,3300.00,0.00,-0.1924,0.9038,0.6150,1.302,3.269,-1.224,9.90,55.38,0.1521,-0.7935,0.5940,0.143,-0.998,-0.913,-9.30,-58.87,0.0000,0.0000,0.0000,-0.192,-0.455,1.926,-0.43,-0.18,6.58,-11.09,-17.67
45400,3300.00,3300.00,0.00,-0.1929,0.9014,0.6260,2.737,4.094,-0.567,9.96,55.41,0.1560,-0.7947,0.5933,0.601,-0.692,-1.127,-9.31,-58.75,0.0000,0.0000,0.0000,-0.192,-0.455,1.926,-0.42,-0.18,6.52,-11.15,-17.67
45425,3300.00,3300.00,0.00,-0.1873,0.9033,0.6157,2.416,3.910,-1.025,10.05,55.48,0.1611,-0.7878,0.5938,-0.635,-0.158,-1.005,-9.31,-58.65,0.0000,0.0000,0.0000,-0.192,-0.455,1.926,-0.43,-0.18,6.46,-11.21,-17.67
45439,3300.00,3300.00,0.00,-0.1882,0.9060,0.6152,2.584,3.223,-1.193,10.09,55.52,0.1597,-0.7925,0.5977,-0.696,-0.097,-0.547,-9.31,-58.55,0.0000,0.0000,0.0000,-0.192,-0.455,1.926,-0.42,-0.18,6.40,-11.27,-17.67
45464,3300.00,3300.00,0.00,-0.1843,0.9126,0.6150,1.363,3.132,-0.949,10.16,55.56,0.1670,-0.7854,0.5996,-2.192,-0.753,0.140,-9.33,-58.48,0.0000,0.0000,0.0000,-0.192,-0.455,1.926,-0.43,-0.18,6.34,-11.33,-17.67
45478,3300.00,3300.00,0.00,-0.1885,0.9121,0.6121,0.630,2.933,0.135,10.19,55.58,0.1636,-0.7886,0.6045,-3.536,-0.509,1.010,-9.34,-58.41,0.0000,0.0000,0.0000,-0.192,-0.455,1.926,-0.42,-0.18,6.28,-11.39,-17.67
45503,3300.00,3300.00,0.00,-0.1902,0.9102,0.6106,-0.378,2.185,0.395,10.23,55.59,0.1626,-0.7949,0.6082,-3.841,-0.097,1.560,-9.34,-58.39,0.0000,0.0000,0.0000,-0.192,-0.455,1.926,-0.43,-0.18,6.23,-11.45,-17.68
45517,3300.00,3300.00,0.00,-0.1897,0.9084,0.6077,0.263,2.857,0.013,10.27,55.60,0.1619,-0.7939,0.6052,-3.017,-1.013,2.003,-9.35,-58.32,0.0000,0.0000,0.0000,-0.192,-0.455,1.926,-0.42,-0.18,6.17,-11.51,-17.67
45541,3300.00,3300.00,0.00,-0.1895,0.9023,0.6089,-0.011,2.979,0.074,10.33,55.61,0.1575,-0.7917,0.6040,-1.963,-0.998,0.476,-9.37,-58.25,0.0000,0.0000,0.0000,-0.192,-0.455,1.926,-0.43,-0.18,6.11,-11.56,-17.67
45556,3300.00,3300.00,0.00,-0.1875,0.9097,0.6033,1.179,3.284,0.685,10.36,55.64,0.1655,-0.7896,0.6108,-2.559,-1.456,1.102,-9.39,-58.17,0.0000,0.0000,0.0000,-0.192,-0.455,1.926,-0.42,-0.18,6.05,-11.62,-17.67
45580,3300.00,3300.00,0.00,-0.1902,0.9072,0.6089,1.286,4.720,-0.186,10.47,55.68,0.1646,-0.7920,0.6079,-2.223,-1.517,0.690,-9.42,-58.11,0.0000,0.0000,0.0000,-0.192,-0.455,1.926,-0.43,-0.18,5.99,-11.68,-17.66
45595,3300.00,3300.00,0.00,-0.1880,0.9114,0.6108,1.286,4.765,-0.415,10.52,55.71,0.1667,-0.7886,0.6074,-2.544,-2.036,0.736,-9.46,-58.03,0.0000,0.0000,0.0000,-0.192,-0.455,1.926,-0.42,-0.18,5.92,-11.74,-17.66
45619,3300.00,3300.00,0.00,-0.1868,0.9070,0.6155,0.157,4.063,-0.399,10.60,55.72,0.1665,-0.7852,0.5991,-2.101,-0.860,1.087,-9.48,-57.97,0.0000,0.0000,0.0000,-0.192,-0.455,1.926,-0.43,-0.18,5.85,-11.80,-17.65
45634,3300.00,3300.00,0.00,-0.1912,0.9058,0.6138,-0.103,3.025,-0.399,10.63,55.72,0.1709,-0.7854,0.5979,-2.376,-0.143,1.056,-9.49,-57.90,0.0000,0.0000,0.0000,-0.192,-0.455,1.926,-0.43,-0.18,5.79,-11.85,-17.64
45658,3300.00,3300.00,0.00,-0.1885,0.9065,0.6104,0.004,3.346,-1.285,10.69,55.73,0.1658,-0.7891,0.6018,-2.315,0.071,1.148,-9.49,-57.85,0.0000,0.0000,0.0000,-0.192,-0.455,1.926,-0.43,-0.18,5.72,-11.91,-17.63
45673,3300.00,3300.00,0.00,-0.1909,0.9097,0.6147,0.172,3.544,-0.781,10.73,55.73,0.1633,-0.7927,0.5989,-2.299,0.025,1.300,-9.48,-57.78,0.0000,0.0000,0.0000,-0.192,-0.455,1.926,-0.43,-0.18,5.66,-11.97,-17.63
45697,3300.00,3300.00,0.00,-0.1860,0.9065,0.6113,0.202,2.781,0.303,10.77,55.74,0.1646,-0.7915,0.5947,-2.971,-0.998,1.819,-9.51,-57.76,0.0000,0.0000,0.0000,-0.192,-0.455,1.926,-0.43,-0.18,5.59,-12.02,-17.62
45711,3300.00,3300.00,0.00,-0.1858,0.9089,0.6069,0.599,2.826,-0.018,10.79,55.76,0.1685,-0.7917,0.6038,-3.368,-0.219,1.270,-9.51,-57.71,0.0000,0.0000,0.0000,-0.192,-0.455,1.926,-0.43,-0.18,5.53,-12.08,-17.61
45736,3300.00,3300.00,0.00,-0.1914,0.9067,0.6123,0.950,3.498,-0.338,10.86,55.79,0.1626,-0.7869,0.6077,-3.215,-0.417,1.285,-9.52,-57.68,0.0000,0.0000,0.0000,-0.192,-0.455,1.926,-0.43,-0.18,5.47,-12.13,-17.60
45750,3300.00,3300.00,0.00,-0.1995,0.9155,0.6079,0.325,3.651,-0.079,10.90,55.81,0.1658,-0.7917,0.6067,-3.551,-0.509,1.346,-9.52,-57.62,0.0000,0.0000,0.0000,-0.192,-0.455,1.926,-0.43,-0.18,5.41,-12.18,-17.60
45775,3300.00,3300.00,0.00,-0.1992,0.9094,0.6123,0.279,3.636,-0.186,10.97,55.82,0.1680,-0.7837,0.6101,-3.078,-0.417,1.209,-9.53,-57.59,0.0000,0.0000,0.0000,-0.192,-0.455,1.926,-0.43,-0.18,5.35,-12.24,-17.59
45789,3300.00,3300.00,0.00,-0.1907,0.9106,0.6133,-0.561,3.819,-0.002,11.00,55.82,0.1619,-0.7693,0.6052,-4.406,-0.967,1.423,-9.54,-57.53,0.0000,0.0000,0.0000,-0.192,-0.455,1.926,-0.43,-0.18,5.29,-12.29,-17.58
45814,3300.00,3300.00,0.00,-0.1885,0.9114,0.6150,-0.775,2.918,-0.216,11.05,55.80,0.1648,-0.7886,0.6033,-4.482,0.010,2.064,-9.54,-57.54,0.0000,0.0000,0.0000,-0.192,-0.455,1.926,-0.43,-0.18,5.23,-12.34,-17.57
45828,3300.00,3300.00,0.00,-0.1890,0.9148,0.6086,-0.851,3.804,0.364,11.08,55.80,0.1672,-0.7834,0.5986,-5.185,-1.425,2.400,-9.56,-57.52,0.0000,0.0000,0.0000,-0.192,-0.455,1.926,-0.43,-0.18,5.17,-12.39,-17.56
45853,3300.00,3300.00,0.00,-0.1914,0.9141,0.5967,-1.294,3.178,0.059,11.13,55.79,0.1648,-0.7822,0.6086,-6.299,-1.242,3.071,-9.59,-57.56,0.0000,0.0000,0.0000,-0.192,-0.455,1.926,-0.43,-0.18,5.11,-12.45,-17.56
45867,3300.00,3300.00,0.00,-0.1912,0.9067,0.6113,-1.004,2.200,0.486,11.14,55.78,0.1677,-0.7832,0.6079,-4.971,1.323,2.598,-9.57,-57.52,0.0000,0.0000,0.0000,-0.192,-0.455,1.926,-0.43,-0.18,5.05,-12.49,-17.55
45892,0.00,3300.00,0.00,-0.1865,0.9136,0.6008,-2.424,2.109,0.379,11.16,55.74,0.1648,-0.7834,0.6060,-5.673,0.957,2.613,-9.55,-57.55,0.0000,0.0000,0.0000,-0.192,-0.455,1.926,-0.43,-0.18,5.00,-12.54,-17.54
45906,2009.01,3300.00,0.00,-0.1865,0.9114,0.6047,-2.500,1.636,0.501,11.15,55.72,0.1716,-0.7874,0.5952,-5.963,0.957,2.888,-9.54,-57.55,0.0000,0.0000,0.0000,-0.192,-0.455,1.926,-0.43,-0.18,4.96,-12.58,-17.54
45920,3300.00,3300.00,0.00,-0.1853,0.9070,0.6094,-1.553,1.132,0.761,11.14,55.70,0.1709,-0.7866,0.6006,-5.689,1.277,2.461,-9.53,-57.53,0.0000,0.0000,0.0000,-0.192,-0.455,1.926,-0.42,-0.18,4.91,-12.62,-17.53
45945,3110.62,3300.00,0.00,-0.1917,0.9080,0.5994,-1.630,2.765,0.013,11.18,55.68,0.1687,-0.7869,0.6067,-5.444,1.323,1.987,-9.50,-57.56,0.0000,0.0000,0.0000,-0.192,-0.455,1.926,-0.43,-0.18,4.87,-12.66,-17.53
45959,3300.00,3300.00,0.00,-0.1902,0.9084,0.6055,-1.813,1.575,-0.430,11.18,55.67,0.1692,-0.7847,0.6008,-5.414,1.445,1.789,-9.48,-57.53,0.0000,0.0000,0.0000,-0.192,-0.455,1.926,-0.43,-0.18,4.84,-12.69,-17.53
45984,3300.00,3300.00,0.00,-0.1855,0.9104,0.6099,-0.988,1.758,-0.430,11.19,55.66,0.1633,-0.7886,0.5959,-5.337,1.399,1.972,-9.45,-57.57,0.0000,0.0000,0.0000,-0.192,-0.455,1.926,-0.43,-0.18,4.81,-12.73,-17.54
45998,3300.00,3300.00,0.00,-0.1885,0.9055,0.6118,-1.385,0.628,-0.094,11.17,55.64,0.1697,-0.7847,0.6055,-5.734,1.720,1.896,-9.43,-57.54,0.0000,0.0000,0.0000,-0.192,-0.455,1.926,-0.43,-0.18,4.78,-12.76,-17.54
46023,3300.00,3300.00,3300.00,-0.1882,0.9099,0.6162,-2.164,1.086,-0.338,11.17,55.60,0.1653,-0.7869,0.5981,-5.887,1.216,1.713,-9.40,-57.59,0.0000,0.0000,0.0000,-0.192,-0.455,1.926,-0.43,-0.18,4.76,-12.79,-17.55
46037,3300.00,3300.00,3300.00,-0.1899,0.9075,0.6123,-2.301,1.422,-0.216,11.16,55.57,0.1616,-0.7896,0.6023,-6.223,1.140,2.110,-9.38,-57.58,0.0000,0.0000,0.0000,-0.192,-0.455,1.926,-0.43,-0.18,4.74,-12.81,-17.55
46062,3300.00,3300.00,3300.00,-0.1943,0.9124,0.6213,-2.103,1.223,-0.384,11.17,55.52,0.1680,-0.7866,0.6003,-6.635,2.758,2.247,-9.32,-57.64,0.0000,0.0000,0.0000,-0.192,-0.455,1.926,-0.43,-0.18,4.73,-12.84,-17.56
46076,3300.00,3300.00,3300.00,-0.1899,0.9124,0.6101,-2.897,1.391,-0.567,11.16,55.50,0.1599,-0.7849,0.6047,-6.070,2.682,2.308,-9.28,-57.62,0.0000,0.0000,0.0000,-0.192,-0.455,1.926,-0.43,-0.18,4.72,-12.86,-17.58
46101,3300.00,3300.00,3300.00,-0.1921,0.9028,0.6206,-2.866,1.666,-0.231,11.17,55.43,0.1565,-0.7932,0.5957,-7.292,1.415,3.071,-9.24,-57.71,0.0000,0.0000,0.0000,-0.192,-0.455,1.926,-0.43,-0.18,4.71,-12.88,-17.59
46115,3295.97,3300.00,0.00,-0.1853,0.9021,0.6184,-2.149,1.926,-0.048,11.17,55.40,0.1619,-0.7930,0.5974,-6.574,2.239,2.934,-9.21,-57.71,0.0000,0.0000,0.0000,-0.192,-0.455,1.926,-0.43,-0.18,4.71,-12.90,-17.61
46140,0.00,3300.00,0.00,-0.1895,0.9077,0.6152,-1.691,1.468,0.181,11.18,55.37,0.1597,-0.7866,0.5940,-5.704,1.720,2.461,-9.16,-57.75,0.0000,0.0000,0.0000,-0.192,-0.455,1.926,-0.43,-0.18,4.70,-12.92,-17.62
46154,0.00,3300.00,0.00,-0.1833,0.9048,0.6125,-1.935,2.384,-0.094,11.18,55.35,0.1616,-0.7908,0.5974,-6.360,1.659,2.308,-9.14,-57.74,0.0000,0.0000,0.0000,-0.192,-0.455,1.926,-0.43,-0.18,4.70,-12.94,-17.64
46168,0.00,3300.00,0.00,-0.1848,0.9028,0.6179,-2.133,2.002,-0.338,11.17,55.33,0.1587,-0.7932,0.5940,-6.269,1.415,2.507,-9.12,-57.74,0.0000,0.0000,0.0000,-0.192,-0.455,1.926,-0.42,-0.18,4.71,-12.95,-17.66
46193,0.00,3300.00,0.00,-0.1860,0.9092,0.6121,-1.843,1.590,-0.125,11.18,55.30,0.1682,-0.7913,0.5977,-5.780,1.186,2.430,-9.10,-57.78,0.0000,0.0000,0.0000,-0.192,-0.455,1.926,-0.43,-0.18,4.71,-12.97,-17.68
46207,0.00,3300.00,0.00,-0.1880,0.9050,0.6138,-2.179,1.788,0.440,11.18,55.28,0.1658,-0.7930,0.6086,-5.536,1.537,2.033,-9.09,-57.75,0.0000,0.0000,0.0000,-0.192,-0.455,1.926,-0.42,-0.18,4.71,-12.98,-17.69
46222,0.00,3300.00,0.00,-0.1892,0.9053,0.6089,-2.347,1.315,0.135,11.17,55.26,0.1650,-0.7888,0.6006,-5.169,0.880,2.354,-9.08,-57.72,0.0000,0.0000,0.0000,-0.192,-0.455,1.926,-0.42,-0.18,4.72,-12.99,-17.71
46246,0.00,3300.00,0.00,-0.1848,0.9041,0.6145,-2.179,1.956,0.028,11.19,55.22,0.1597,-0.7913,0.5994,-5.139,1.262,2.522,-9.05,-57.75,0.0000,0.0000,0.0000,-0.192,-0.455,1.926,-0.43,-0.18,4.72,-13.01,-17.73
46261,0.00,3300.00,0.00,-0.1851,0.9055,0.6125,-1.828,3.361,-0.308,11.20,55.21,0.1631,-0.7959,0.6050,-4.925,0.773,1.758,-9.05,-57.72,0.0000,0.0000,0.0000,-0.192,-0.455,1.926,-0.42,-0.18,4.73,-13.02,-17.75
46275,0.00,3300.00,0.00,-0.1836,0.9080,0.6104,-1.721,3.025,-0.170,11.21,55.20,0.1633,-0.7944,0.5991,-4.986,0.468,1.850,-9.05,-57.70,0.0000,0.0000,0.0000,-0.192,-0.455,1.926,-0.42,-0.18,4.73,-13.03,-17.76
46300,0.00,3300.00,0.00,-0.1875,0.9084,0.6174,-1.294,3.055,0.517,11.25,55.18,0.1675,-0.7942,0.6003,-4.284,0.880,2.354,-9.03,-57.70,0.0000,0.0000,0.0000,-0.192,-0.455,1.926,-0.42,-0.18,4.73,-13.05,-17.78
46314,0.00,0.00,0.00,-0.1904,0.9126,0.6135,-1.492,2.735,0.074,11.26,55.18,0.1599,-0.7908,0.6052,-4.574,1.064,1.896,-9.02,-57.66,0.0000,0.0000,0.0000,-0.192,-0.455,1.926,-0.42,-0.18,4.73,-13.06,-17.79
46328,0.00,0.00,0.00,-0.1934,0.9089,0.6104,-1.950,2.491,-0.140,11.27,55.17,0.1624,-0.7883,0.6079,-4.620,1.002,1.865,-9.01,-57.62,0.0000,0.0000,0.0000,-0.192,-0.455,1.926,-0.42,-0.18,4.73,-13.08,-17.81
46353,0.00,3300.00,0.00,-0.1885,0.9036,0.6084,-2.027,2.292,0.471,11.30,55.14,0.1604,-0.7917,0.6016,-5.368,0.758,2.354,-9.00,-57.66,0.0000,0.0000,0.0000,-0.192,-0.455,1.926,-0.42,-0.18,4.73,-13.09,-17.82
46367,0.00,3300.00,0.00,-0.1868,0.9028,0.6101,-1.859,1.742,0.333,11.29,55.13,0.1646,-0.7964,0.5950,-5.139,0.529,2.827,-9.00,-57.64,0.0000,0.0000,0.0000,-0.192,-0.455,1.926,-0.42,-0.18,4.73,-13.10,-17.83
46381,0.00,3300.00,0.00,-0.1838,0.9019,0.6165,-1.569,2.994,-0.048,11.30,55.12,0.1589,-0.7939,0.6003,-5.414,0.896,2.720,-8.99,-57.62,0.0000,0.0000,0.0000,-0.192,-0.455,1.926,-0.42,-0.18,4.73,-13.12,-17.85
46406,0.00,3300.00,0.00,-0.1821,0.9060,0.6111,-0.469,3.178,-0.323,11.34,55.12,0.1599,-0.7944,0.6001,-4.574,0.163,1.865,-8.99,-57.64,0.0000,0.0000,0.0000,-0.192,-0.455,1.926,-0.42,-0.18,4.73,-13.13,-17.86
46420,0.00,3300.00,0.00,-0.1890,0.9026,0.6172,0.111,3.040,-0.369,11.35,55.14,0.1631,-0.7927,0.5984,-4.116,-0.219,1.575,-9.00,-57.60,0.0000,0.0000,0.0000,-0.192,-0.455,1.926,-0.42,-0.18,4.73,-13.14,-17.87
46435,0.00,3300.00,0.00,-0.1882,0.9092,0.6182,-0.271,2.659,0.410,11.36,55.14,0.1638,-0.7913,0.5979,-3.673,0.025,1.789,-9.00,-57.56,0.0000,0.0000,0.0000,-0.192,-0.455,1.926,-0.42,-0.18,4.72,-13.16,-17.88
46459,0.00,2289.45,0.00,-0.1860,0.9106,0.6133,-1.279,2.231,0.333,11.38,55.13,0.1665,-0.7908,0.5911,-4.528,0.300,1.667,-9.01,-57.58,0.0000,0.0000,0.0000,-0.192,-0.455,1.926,-0.42,-0.18,4.72,-13.17,-17.89
46474,0.00,3300.00,0.00,-0.1895,0.9055,0.6108,-1.095,1.880,0.257,11.37,55.13,0.1624,-0.7930,0.5930,-3.795,0.697,1.545,-9.00,-57.55,0.0000,0.0000,0.0000,-0.192,-0.455,1.926,-0.42,-0.18,4.71,-13.19,-17.90
46488,0.00,3300.00,0.00,-0.1853,0.9070,0.6113,-0.927,2.277,-0.644,11.37,55.14,0.1689,-0.7898,0.5962,-4.345,0.438,1.071,-9.01,-57.52,0.0000,0.0000,0.0000,-0.192,-0.455,1.926,-0.42,-0.18,4.71,-13.20,-17.90
46513,0.00,3300.00,0.00,-0.1890,0.9082,0.6111,-1.004,2.857,-0.399,11.41,55.13,0.1646,-0.7915,0.6006,-4.773,0.605,2.048,-9.00,-57.54,0.0000,0.0000,0.0000,-0.192,-0.455,1.926,-0.42,-0.18,4.70,-13.21,-17.91
46527,0.00,2621.47,0.00,-0.1870,0.9053,0.6177,-1.187,2.659,-0.613,11.41,55.13,0.1636,-0.7915,0.6130,-4.605,-0.036,2.522,-9.01,-57.50,0.0000,0.0000,0.0000,-0.192,-0.455,1.926,-0.42,-0.18,4.69,-13.22,-17.92
46541,0.00,1639.93,0.00,-0.1855,0.9104,0.6106,-1.660,1.620,-0.155,11.40,55.12,0.1584,-0.7878,0.5999,-4.284,0.102,1.575,-9.01,-57.46,0.0000,0.0000,0.0000,-0.192,-0.455,1.926,-0.41,-0.17,4.69,-13.23,-17.92
46566,0.00,0.00,0.00,-0.1858,0.8997,0.6108,-1.263,2.720,0.135,11.43,55.11,0.1626,-0.7920,0.6072,-3.811,0.300,1.285,-9.01,-57.45,0.0000,0.0000,0.0000,-0.192,-0.455,1.926,-0.42,-0.18,4.68,-13.25,-17.93
46580,0.00,0.00,0.00,-0.1929,0.9001,0.6064,-0.592,3.605,0.181,11.45,55.12,0.1619,-0.7920,0.6064,-4.437,-0.540,1.545,-9.02,-57.42,0.0000,0.0000,0.0000,-0.192,-0.455,1.926,-0.42,-0.18,4.67,-13.26,-17.93
46595,0.00,1490.04,3300.00,-0.1936,0.9072,0.6138,0.172,3.284,-0.628,11.47,55.14,0.1633,-0.7891,0.5981,-4.116,-0.219,1.132,-9.03,-57.39,0.0000,0.0000,0.0000,-0.192,-0.455,1.926,-0.41,-0.17,4.66,-13.27,-17.94
46619,0.00,3300.00,3300.00,-0.1912,0.9109,0.6172,-1.019,3.529,-0.949,11.52,55.13,0.1604,-0.7925,0.6001,-3.612,0.453,1.545,-9.02,-57.38,0.0000,0.0000,0.0000,-0.192,-0.455,1.926,-0.42,-0.18,4.65,-13.29,-17.94
46633,0.00,3300.00,3300.00,-0.1887,0.9077,0.6111,-0.744,2.765,-0.521,11.53,55.14,0.1602,-0.7947,0.5918,-4.253,0.636,1.316,-9.02,-57.36,0.0000,0.0000,0.0000,-0.192,-0.455,1.926,-0.41,-0.17,4.64,-13.30,-17.94
46658,0.00,0.00,1471.50,-0.1853,0.9092,0.6160,-0.500,2.933,0.257,11.56,55.14,0.1560,-0.7876,0.5938,-3.689,0.529,0.873,-9.00,-57.36,0.0000,0.0000,0.0000,-0.192,-0.455,1.926,-0.42,-0.18,4.63,-13.32,-17.95
46672,0.00,0.00,0.00,-0.1858,0.9016,0.6152,-0.592,2.475,-0.079,11.55,55.14,0.1626,-0.7913,0.5974,-4.330,0.667,1.102,-9.00,-57.33,0.0000,0.0000,0.0000,-0.192,-0.455,1.926,-0.41,-0.17,4.62,-13.33,-17.95
46687,0.00,0.00,0.00,-0.1816,0.9033,0.6169,-0.637,3.055,-0.292,11.55,55.14,0.1665,-0.7944,0.5986,-4.101,0.773,1.392,-9.00,-57.31,0.0000,0.0000,0.0000,-0.192,-0.455,1.926,-0.41,-0.17,4.61,-13.35,-17.95
46711,0.00,0.00,0.00,-0.1855,0.9080,0.6157,-0.714,2.979,-0.354,11.59,55.14,0.1628,-0.7913,0.5977,-3.902,0.987,1.667,-8.98,-57.31,0.0000,0.0000,0.0000,-0.192,-0.455,1.926,-0.42,-0.18,4.60,-13.36,-17.96
46726,0.00,0.00,0.00,-0.1882,0.9104,0.6147,-0.179,3.117,-0.292,11.59,55.15,0.1621,-0.7908,0.5984,-3.444,0.667,1.667,-8.98,-57.27,0.0000,0.0000,0.0000,-0.192,-0.455,1.926,-0.41,-0.17,4.59,-13.38,-17.96
46740,0.00,0.00,0.00,-0.1855,0.9104,0.6143,-0.958,2.949,-0.186,11.59,55.16,0.1650,-0.7915,0.6038,-3.734,0.651,1.453,-8.98,-57.23,0.0000,0.0000,0.0000,-0.192,-0.455,1.926,-0.41,-0.17,4.58,-13.39,-17.97
46765,0.00,0.00,0.00,-0.1897,0.9089,0.6182,-1.446,1.880,0.547,11.60,55.13,0.1680,-0.7898,0.6003,-4.024,0.117,1.224,-8.99,-57.24,0.0000,0.0000,0.0000,-0.192,-0.455,1.926,-0.41,-0.17,4.57,-13.41,-17.97
46779,0.00,0.00,0.00,-0.1899,0.8972,0.6069,-1.340,2.964,0.150,11.61,55.13,0.1606,-0.7844,0.5986,-3.169,0.254,1.316,-8.99,-57.19,0.0000,0.0000,0.0000,-0.192,-0.455,1.926,-0.41,-0.17,4.56,-13.42,-17.98
46793,0.00,0.00,0.00,-0.1870,0.9045,0.6084,-0.317,3.239,-0.262,11.62,55.15,0.1621,-0.7886,0.6055,-3.902,0.132,1.758,-8.99,-57.15,0.0000,0.0000,0.0000,-0.192,-0.455,1.926,-0.41,-0.17,4.55,-13.43,-17.98
46818,0.00,0.00,0.00,-0.1887,0.9080,0.6116,0.462,3.559,-0.659,11.67,55.17,0.1663,-0.7896,0.5994,-3.780,-0.326,1.804,-9.01,-57.16,0.0000,0.0000,0.0000,-0.192,-0.455,1.926,-0.41,-0.17,4.53,-13.45,-17.98
46832,0.00,0.00,0.00,-0.1833,0.9131,0.6111,-0.195,3.666,-0.216,11.68,55.19,0.1650,-0.7930,0.6079,-4.177,-0.631,1.453,-9.03,-57.12,0.0000,0.0000,0.0000,-0.192,-0.455,1.926,-0.41,-0.17,4.52,-13.46,-17.98
46846,0.00,0.00,0.00,-0.1904,0.9124,0.6133,-0.530,3.575,-0.552,11.69,55.20,0.1646,-0.7891,0.5986,-3.765,0.987,1.728,-9.02,-57.09,0.0000,0.0000,0.0000,-0.192,-0.455,1.926,-0.41,-0.17,4.50,-13.47,-17.98
46871,0.00,0.00,0.00,-0.1941,0.9072,0.6145,-2.042,0.811,-0.170,11.68,55.17,0.1594,-0.7869,0.6067,-4.055,0.239,1.071,-9.02,-57.09,0.0000,0.0000,0.0000,-0.192,-0.455,1.926,-0.41,-0.17,4.49,-13.49,-17.98
46885,0.00,0.00,0.00,-0.1921,0.9092,0.6157,-1.721,1.422,-0.125,11.66,55.16,0.1641,-0.7886,0.6018,-3.826,1.094,1.316,-9.01,-57.06,0.0000,0.0000,0.0000,-0.192,-0.455,1.926,-0.41,-0.17,4.48,-13.50,-17.98
46899,0.00,0.00,0.00,-0.1909,0.9077,0.6165,-1.248,1.941,0.211,11.65,55.15,0.1602,-0.7903,0.6006,-4.162,0.789,1.697,-9.00,-57.03,0.0000,0.0000,0.0000,-0.192,-0.455,1.926,-0.41,-0.17,4.47,-13.51,-17.98
46924,0.00,0.00,0.00,-0.1873,0.9041,0.6194,-1.034,3.055,-0.262,11.69,55.14,0.1604,-0.7864,0.5952,-4.345,0.651,1.636,-8.99,-57.05,0.0000,0.0000,0.0000,-0.192,-0.455,1.926,-0.41,-0.17,4.47,-13.52,-17.98
46938,0.00,0.00,3300.00,-0.1863,0.9045,0.6089,-0.164,3.132,-0.231,11.69,55.15,0.1570,-0.7932,0.6016,-4.711,1.018,1.774,-8.98,-57.03,0.0000,0.0000,0.0000,-0.192,-0.455,1.926,-0.41,-0.17,4.46,-13.53,-17.99
46953,0.00,0.00,3300.00,-0.1895,0.9055,0.6172,-1.004,3.147,0.166,11.70,55.15,0.1594,-0.7957,0.6050,-4.437,0.239,2.598,-8.97,-57.01,0.0000,0.0000,0.0000,-0.192,-0.455,1.926,-0.41,-0.17,4.45,-13.54,-17.99
46978,3300.00,3300.00,3300.00,-0.1924,0.9128,0.6116,-1.065,2.536,-0.598,11.72,55.15,0.1675,-0.7883,0.6064,-4.116,1.170,1.911,-8.96,-57.02,0.0000,0.0000,0.0000,-0.192,-0.455,1.926,-0.41,-0.17,4.44,-13.55,-17.99
46992,3300.00,3300.00,3300.00,-0.1929,0.9080,0.6145,-1.294,2.277,-0.033,11.72,55.14,0.1614,-0.7888,0.6104,-5.002,0.132,1.331,-8.96,-56.99,0.0000,0.0000,0.0000,-0.192,-0.455,1.926,-0.41,-0.17,4.44,-13.56,-18.00
47017,3300.00,3300.00,3300.00,-0.1899,0.9084,0.6150,-1.706,1.330,0.196,11.72,55.12,0.1628,-0.7864,0.6040,-5.521,1.293,1.819,-8.94,-57.04,0.0000,0.0000,0.0000,-0.192,-0.455,1.926,-0.41,-0.17,4.43,-13.57,-18.00
47031,3300.00,3300.00,3300.00,-0.1897,0.9084,0.6094,-1.767,1.727,0.242,11.70,55.11,0.1587,-0.7849,0.5974,-5.734,0.896,1.987,-8.93,-57.03,0.0000,0.0000,0.0000,-0.192,-0.455,1.926,-0.41,-0.17,4.43,-13.58,-18.01
47055,3300.00,3300.00,3300.00,-0.1860,0.9067,0.6055,-1.492,2.200,0.120,11.71,55.10,0.1675,-0.7903,0.5962,-5.078,1.247,2.018,-8.91,-57.07,0.0000,0.0000,0.0000,-0.192,-0.455,1.926,-0.41,-0.17,4.43,-13.58,-18.01
47070,3300.00,3300.00,3300.00,-0.1870,0.9033,0.6094,-0.958,2.124,-0.399,11.71,55.10,0.1731,-0.7930,0.6077,-5.521,1.079,2.140,-8.91,-57.06,0.0000,0.0000,0.0000,-0.192,-0.455,1.926,-0.41,-0.17,4.43,-13.59,-18.02
47094,3300.00,3300.00,3300.00,-0.1873,0.9092,0.6064,0.065,3.681,-0.140,11.75,55.13,0.1643,-0.7917,0.6050,-5.246,1.262,2.155,-8.89,-57.10,0.0000,0.0000,0.0000,-0.192,-0.455,1.926,-0.41,-0.17,4.42,-13.60,-18.02
47109,3300.00,3300.00,3300.00,-0.1885,0.9104,0.6128,-0.714,2.185,-0.094,11.74,55.14,0.1675,-0.7905,0.6001,-5.108,1.445,1.621,-8.89,-57.08,0.0000,0.0000,0.0000,-0.192,-0.455,1.926,-0.41,-0.17,4.42,-13.61,-18.03
47133,3300.00,3300.00,3300.00,-0.1936,0.9087,0.6128,-1.859,1.758,-0.781,11.75,55.11,0.1624,-0.7891,0.6067,-4.696,1.873,1.682,-8.85,-57.10,0.0000,0.0000,0.0000,-0.192,-0.455,1.926,-0.41,-0.17,4.42,-13.62,-18.04
47148,0.00,3300.00,3300.00,-0.1885,0.9070,0.6125,-2.500,0.613,0.318,11.72,55.09,0.1597,-0.7896,0.5994,-5.673,1.338,1.377,-8.84,-57.10,0.0000,0.0000,0.0000,-0.192,-0.455,1.926,-0.41,-0.17,4.42,-13.62,-18.05
47172,133.77,3002.64,3300.00,-0.1875,0.9043,0.6160,-1.889,0.811,0.104,11.70,55.06,0.1643,-0.7896,0.5974,-5.918,1.369,1.285,-8.81,-57.15,0.0000,0.0000,0.0000,-0.192,-0.455,1.926,-0.42,-0.18,4.43,-13.63,-18.06
47187,1758.39,0.00,3300.00,-0.1877,0.9065,0.6155,-1.569,2.613,-0.399,11.70,55.05,0.1614,-0.7898,0.5952,-5.719,1.186,2.308,-8.81,-57.15,0.0000,0.0000,0.0000,-0.192,-0.455,1.926,-0.41,-0.17,4.44,-13.63,-18.07
47211,0.00,0.00,3300.00,-0.1853,0.9036,0.6167,-0.454,3.132,-0.079,11.73,55.05,0.1628,-0.7971,0.6021,-5.566,0.758,2.888,-8.80,-57.20,0.0000,0.0000,0.0000,-0.192,-0.455,1.926,-0.42,-0.18,4.44,-13.64,-18.08
